Oxygen,Radius,Myoglobin,Metabolism,Advantage
0.001,5,0,0.092527598,0
0.002,5,0,0.160875828,0
0.003,5,0,0.216221727,0
0.004,5,0,0.263456182,0
0.005,5,0,0.305066335,0
0.006,5,0,0.342464374,0
0.007,5,0,0.376526846,0
0.008,5,0,0.407840493,0
0.009,5,0,0.436823909,0
0.01,5,0,0.463791552,0
0.02,5,0,0.660090477,0
0.03,5,0,0.778182064,0
0.04,5,0,0.85145431,0
0.05,5,0,0.894551539,0
0.06,5,0,0.919373345,0
0.07,5,0,0.934640756,0
0.08,5,0,0.944832143,0
0.09,5,0,0.952095504,0
0.1,5,0,0.957532116,0
0.11,5,0,0.961755206,0
0.12,5,0,0.965131484,0
0.13,5,0,0.967893334,0
0.14,5,0,0.970195106,0
0.15,5,0,0.972143337,0
0.16,5,0,0.973813953,0
0.17,5,0,0.975262541,0
0.18,5,0,0.976530742,0
0.19,5,0,0.977650372,0
0.2,5,0,0.978646164,0
0.21,5,0,0.979537638,0
0.22,5,0,0.98034041,0
0.23,5,0,0.98106712,0
0.24,5,0,0.981728111,0
0.25,5,0,0.98233193,0
0.001,10,0,0.050273986,0
0.002,10,0,0.087404542,0
0.003,10,0,0.117602333,0
0.004,10,0,0.143582344,0
0.005,10,0,0.166718303,0
0.006,10,0,0.187780856,0
0.007,10,0,0.207238377,0
0.008,10,0,0.225395336,0
0.009,10,0,0.242461819,0
0.01,10,0,0.258590755,0
0.02,10,0,0.385981745,0
0.03,10,0,0.477912674,0
0.04,10,0,0.550364872,0
0.05,10,0,0.610073337,0
0.06,10,0,0.660587023,0
0.07,10,0,0.70406648,0
0.08,10,0,0.741924522,0
0.09,10,0,0.775142589,0
0.1,10,0,0.804440888,0
0.11,10,0,0.830354188,0
0.12,10,0,0.853296426,0
0.13,10,0,0.873592761,0
0.14,10,0,0.891498742,0
0.15,10,0,0.907219664,0
0.16,10,0,0.920917804,0
0.17,10,0,0.932717948,0
0.18,10,0,0.942705071,0
0.19,10,0,0.950912926,0
0.2,10,0,0.95736685,0
0.21,10,0,0.962253295,0
0.22,10,0,0.965941723,0
0.23,10,0,0.968791892,0
0.24,10,0,0.971060576,0
0.25,10,0,0.972915356,0
0.001,15,0,0.034421941,0
0.002,15,0,0.059805349,0
0.003,15,0,0.080446054,0
0.004,15,0,0.098222249,0
0.005,15,0,0.114083801,0
0.006,15,0,0.128562541,0
0.007,15,0,0.141980284,0
0.008,15,0,0.154544654,0
0.009,15,0,0.16639738,0
0.01,15,0,0.17764031,0
0.02,15,0,0.268027584,0
0.03,15,0,0.335374774,0
0.04,15,0,0.390115582,0
0.05,15,0,0.436621152,0
0.06,15,0,0.477227421,0
0.07,15,0,0.513322199,0
0.08,15,0,0.545841641,0
0.09,15,0,0.575434581,0
0.1,15,0,0.602564852,0
0.11,15,0,0.62759171,0
0.12,15,0,0.650797803,0
0.13,15,0,0.67240148,0
0.14,15,0,0.692578481,0
0.15,15,0,0.711478094,0
0.16,15,0,0.729225735,0
0.17,15,0,0.745924026,0
0.18,15,0,0.76165957,0
0.19,15,0,0.776509257,0
0.2,15,0,0.790540954,0
0.21,15,0,0.803812391,0
0.22,15,0,0.816373018,0
0.23,15,0,0.828267437,0
0.24,15,0,0.839536544,0
0.25,15,0,0.850216456,0
0.001,20,0,0.026158918,0
0.002,20,0,0.045428872,0
0.003,20,0,0.061092677,0
0.004,20,0,0.074585807,0
0.005,20,0,0.086634167,0
0.006,20,0,0.097643933,0
0.007,20,0,0.107860479,0
0.008,20,0,0.117441615,0
0.009,20,0,0.126494549,0
0.01,20,0,0.13509584,0
0.02,20,0,0.204789083,0
0.03,20,0,0.257407635,0
0.04,20,0,0.300706528,0
0.05,20,0,0.337904618,0
0.06,20,0,0.370748796,0
0.07,20,0,0.40026421,0
0.08,20,0,0.427135662,0
0.09,20,0,0.451853141,0
0.1,20,0,0.474763662,0
0.11,20,0,0.496125832,0
0.12,20,0,0.5161482,0
0.13,20,0,0.534999257,0
0.14,20,0,0.55281095,0
0.15,20,0,0.569689271,0
0.16,20,0,0.58572529,0
0.17,20,0,0.600998885,0
0.18,20,0,0.61557767,0
0.19,20,0,0.629517469,0
0.2,20,0,0.642865942,0
0.21,20,0,0.655666234,0
0.22,20,0,0.667957935,0
0.23,20,0,0.679776069,0
0.24,20,0,0.691150547,0
0.25,20,0,0.702107267,0
0.001,25,0,0.021092108,0
0.002,25,0,0.036618637,0
0.003,25,0,0.049235731,0
0.004,25,0,0.060104945,0
0.005,25,0,0.06981366,0
0.006,25,0,0.078690448,0
0.007,25,0,0.086933634,0
0.008,25,0,0.09467056,0
0.009,25,0,0.101987504,0
0.01,25,0,0.108945855,0
0.02,25,0,0.16557699,0
0.03,25,0,0.208642549,0
0.04,25,0,0.244316458,0
0.05,25,0,0.275143204,0
0.06,25,0,0.302515916,0
0.07,25,0,0.32725199,0
0.08,25,0,0.349888464,0
0.09,25,0,0.37081549,0
0.1,25,0,0.390313771,0
0.11,25,0,0.408587519,0
0.12,25,0,0.425798306,0
0.13,25,0,0.442080281,0
0.14,25,0,0.457541748,0
0.15,25,0,0.472267982,0
0.16,25,0,0.486328889,0
0.17,25,0,0.499785762,0
0.18,25,0,0.512693183,0
0.19,25,0,0.525097963,0
0.2,25,0,0.537038959,0
0.21,25,0,0.548549047,0
0.22,25,0,0.559657756,0
0.23,25,0,0.570392632,0
0.24,25,0,0.58077896,0
0.25,25,0,0.590838947,0
0.001,30,0,0.01766895,0
0.002,30,0,0.030668944,0
0.003,30,0,0.041230372,0
0.004,30,0,0.050328657,0
0.005,30,0,0.058457068,0
0.006,30,0,0.065891484,0
0.007,30,0,0.072798347,0
0.008,30,0,0.079284417,0
0.009,30,0,0.085421904,0
0.01,30,0,0.09126207,0
0.02,30,0,0.138928495,0
0.03,30,0,0.17534157,0
0.04,30,0,0.205630312,0
0.05,30,0,0.23189799,0
0.06,30,0,0.255301655,0
0.07,30,0,0.276522668,0
0.08,30,0,0.29600274,0
0.09,30,0,0.314064243,0
0.1,30,0,0.330942985,0
0.11,30,0,0.346809327,0
0.12,30,0,0.361795052,0
0.13,30,0,0.376010012,0
0.14,30,0,0.389545307,0
0.15,30,0,0.402473461,0
0.16,30,0,0.414852391,0
0.17,30,0,0.426731357,0
0.18,30,0,0.438154585,0
0.19,30,0,0.449161483,0
0.2,30,0,0.459785667,0
0.21,30,0,0.470055086,0
0.22,30,0,0.479993611,0
0.23,30,0,0.489622903,0
0.24,30,0,0.498963347,0
0.25,30,0,0.508033849,0
0.001,35,0,0.015201298,0
0.002,35,0,0.026381464,0
0.003,35,0,0.035462709,0
0.004,35,0,0.04328572,0
0.005,35,0,0.050275636,0
0.006,35,0,0.05667021,0
0.007,35,0,0.062612834,0
0.008,35,0,0.068195424,0
0.009,35,0,0.073480076,0
0.01,35,0,0.078510801,0
0.02,35,0,0.119652567,0
0.03,35,0,0.15117948,0
0.04,35,0,0.177478356,0
0.05,35,0,0.200341718,0
0.06,35,0,0.220758228,0
0.07,35,0,0.239312682,0
0.08,35,0,0.256380499,0
0.09,35,0,0.272235613,0
0.1,35,0,0.287081024,0
0.11,35,0,0.30106349,0
0.12,35,0,0.31429462,0
0.13,35,0,0.32686692,0
0.14,35,0,0.338858394,0
0.15,35,0,0.350332186,0
0.16,35,0,0.361338373,0
0.17,35,0,0.371918436,0
0.18,35,0,0.382109181,0
0.19,35,0,0.391943998,0
0.2,35,0,0.401452212,0
0.21,35,0,0.410658511,0
0.22,35,0,0.41958353,0
0.23,35,0,0.428245296,0
0.24,35,0,0.436660508,0
0.25,35,0,0.444844984,0
0.001,40,0,0.013338247,0
0.002,40,0,0.023145319,0
0.003,40,0,0.031110049,0
0.004,40,0,0.037971083,0
0.005,40,0,0.04410196,0
0.006,40,0,0.049711566,0
0.007,40,0,0.054925854,0
0.008,40,0,0.059825521,0
0.009,40,0,0.06446504,0
0.01,40,0,0.068882971,0
0.02,40,0,0.105066319,0
0.03,40,0,0.132856659,0
0.04,40,0,0.156086429,0
0.05,40,0,0.176317518,0
0.06,40,0,0.19441257,0
0.07,40,0,0.210884002,0
0.08,40,0,0.226058459,0
0.09,40,0,0.240173766,0
0.1,40,0,0.25340789,0
0.11,40,0,0.265889951,0
0.12,40,0,0.277717004,0
0.13,40,0,0.288968814,0
0.14,40,0,0.29971327,0
0.15,40,0,0.310006174,0
0.16,40,0,0.319891864,0
0.17,40,0,0.329406434,0
0.18,40,0,0.338581377,0
0.19,40,0,0.34744539,0
0.2,40,0,0.356024209,0
0.21,40,0,0.364339903,0
0.22,40,0,0.372410889,0
0.23,40,0,0.380252851,0
0.24,40,0,0.387879952,0
0.25,40,0,0.395305582,0
0.001,45,0,0.011881872,0
0.002,45,0,0.020616102,0
0.003,45,0,0.027708665,0
0.004,45,0,0.033818247,0
0.005,45,0,0.039277959,0
0.006,45,0,0.044274067,0
0.007,45,0,0.048918869,0
0.008,45,0,0.053284285,0
0.009,45,0,0.057418837,0
0.01,45,0,0.061356836,0
0.02,45,0,0.093645944,0
0.03,45,0,0.11848837,0
0.04,45,0,0.139286524,0
0.05,45,0,0.157424297,0
0.06,45,0,0.173666574,0
0.07,45,0,0.188469437,0
0.08,45,0,0.202122131,0
0.09,45,0,0.214834663,0
0.1,45,0,0.226765331,0
0.11,45,0,0.238029494,0
0.12,45,0,0.248713183,0
0.13,45,0,0.258886482,0
0.14,45,0,0.268609325,0
0.15,45,0,0.277931587,0
0.16,45,0,0.286893109,0
0.17,45,0,0.295525991,0
0.18,45,0,0.303857803,0
0.19,45,0,0.311913604,0
0.2,45,0,0.31971617,0
0.21,45,0,0.327285373,0
0.22,45,0,0.334637899,0
0.23,45,0,0.341787781,0
0.24,45,0,0.348747396,0
0.25,45,0,0.355528307,0
0.001,50,0,0.010712161,0
0.002,50,0,0.018585058,0
0.003,50,0,0.024977532,0
0.004,50,0,0.03048393,0
0.005,50,0,0.035404827,0
0.006,50,0,0.039908293,0
0.007,50,0,0.044095642,0
0.008,50,0,0.04803174,0
0.009,50,0,0.051760329,0
0.01,50,0,0.05531232,0
0.02,50,0,0.084462492,0
0.03,50,0,0.106920539,0
0.04,50,0,0.125745608,0
0.05,50,0,0.142180066,0
0.06,50,0,0.156910803,0
0.07,50,0,0.170348768,0
0.08,50,0,0.182753584,0
0.09,50,0,0.194313193,0
0.1,50,0,0.205170041,0
0.11,50,0,0.2154284,0
0.12,50,0,0.22516562,0
0.13,50,0,0.234444209,0
0.14,50,0,0.243317728,0
0.15,50,0,0.251831191,0
0.16,50,0,0.260020783,0
0.17,50,0,0.267915492,0
0.18,50,0,0.275539885,0
0.19,50,0,0.282916169,0
0.2,50,0,0.290064692,0
0.21,50,0,0.297003455,0
0.22,50,0,0.303747716,0
0.23,50,0,0.310310243,0
0.24,50,0,0.316702099,0
0.25,50,0,0.322933467,0
0.001,55,0,0.009752167,0
0.002,55,0,0.016918377,0
0.003,55,0,0.022736542,0
0.004,55,0,0.027748129,0
0.005,55,0,0.03222697,0
0.006,55,0,0.03632618,0
0.007,55,0,0.040138046,0
0.008,55,0,0.043721645,0
0.009,55,0,0.047116797,0
0.01,55,0,0.050351624,0
0.02,55,0,0.07691822,0
0.03,55,0,0.097408383,0
0.04,55,0,0.11460092,0
0.05,55,0,0.129622975,0
0.06,55,0,0.143097796,0
0.07,55,0,0.155399343,0
0.08,55,0,0.166763186,0
0.09,55,0,0.17735936,0
0.1,55,0,0.187317286,0
0.11,55,0,0.196732102,0
0.12,55,0,0.205674127,0
0.13,55,0,0.214199784,0
0.14,55,0,0.222357444,0
0.15,55,0,0.230188071,0
0.16,55,0,0.237724804,0
0.17,55,0,0.244994117,0
0.18,55,0,0.252018204,0
0.19,55,0,0.258816995,0
0.2,55,0,0.265408829,0
0.21,55,0,0.271810115,0
0.22,55,0,0.278034896,0
0.23,55,0,0.284094912,0
0.24,55,0,0.290000216,0
0.25,55,0,0.295759922,0
0.001,60,0,0.008950055,0
0.002,60,0,0.015525966,0
0.003,60,0,0.020864477,0
0.004,60,0,0.025462814,0
0.005,60,0,0.029572436,0
0.006,60,0,0.033333947,0
0.007,60,0,0.036832086,0
0.008,60,0,0.040121087,0
0.009,60,0,0.043237494,0
0.01,60,0,0.046207106,0
0.02,60,0,0.070610248,0
0.03,60,0,0.089448908,0
0.04,60,0,0.105268613,0
0.05,60,0,0.119100867,0
0.06,60,0,0.131516019,0
0.07,60,0,0.142857157,0
0.08,60,0,0.153339913,0
0.09,60,0,0.163119518,0
0.1,60,0,0.172314511,0
0.11,60,0,0.181012366,0
0.12,60,0,0.189277578,0
0.13,60,0,0.197161583,0
0.14,60,0,0.204708451,0
0.15,60,0,0.211955732,0
0.16,60,0,0.218933985,0
0.17,60,0,0.225667592,0
0.18,60,0,0.232176825,0
0.19,60,0,0.238479757,0
0.2,60,0,0.244593053,0
0.21,60,0,0.250531761,0
0.22,60,0,0.256308869,0
0.23,60,0,0.261935256,0
0.24,60,0,0.267420163,0
0.25,60,0,0.272771857,0
0.001,65,0,0.008269843,0
0.002,65,0,0.014345282,0
0.003,65,0,0.019277182,0
0.004,65,0,0.023525207,0
0.005,65,0,0.027321824,0
0.006,65,0,0.030797015,0
0.007,65,0,0.034029112,0
0.008,65,0,0.037068242,0
0.009,65,0,0.039948172,0
0.01,65,0,0.042692729,0
0.02,65,0,0.065257887,0
0.03,65,0,0.08269096,0
0.04,65,0,0.097340323,0
0.05,65,0,0.110156825,0
0.06,65,0,0.121666154,0
0.07,65,0,0.13218524,0
0.08,65,0,0.141912915,0
0.09,65,0,0.150991962,0
0.1,65,0,0.159531693,0
0.11,65,0,0.167613054,0
0.12,65,0,0.17529563,0
0.13,65,0,0.182626686,0
0.14,65,0,0.18964668,0
0.15,65,0,0.196390253,0
0.16,65,0,0.202885749,0
0.17,65,0,0.209155781,0
0.18,65,0,0.215219024,0
0.19,65,0,0.22109202,0
0.2,65,0,0.226790027,0
0.21,65,0,0.232326921,0
0.22,65,0,0.237714773,0
0.23,65,0,0.242963728,0
0.24,65,0,0.24808235,0
0.25,65,0,0.253078224,0
0.001,70,0,0.007685709,0
0.002,70,0,0.013331455,0
0.003,70,0,0.017914286,0
0.004,70,0,0.02186158,0
0.005,70,0,0.025389482,0
0.006,70,0,0.028618841,0
0.007,70,0,0.031622485,0
0.008,70,0,0.03444701,0
0.009,70,0,0.0371238,0
0.01,70,0,0.039674991,0
0.02,70,0,0.060659413,0
0.03,70,0,0.076881807,0
0.04,70,0,0.090521731,0
0.05,70,0,0.102461079,0
0.06,70,0,0.113187334,0
0.07,70,0,0.122994964,0
0.08,70,0,0.132068449,0
0.09,70,0,0.140539967,0
0.1,70,0,0.14851093,0
0.11,70,0,0.156056666,0
0.12,70,0,0.163232562,0
0.13,70,0,0.170082353,0
0.14,70,0,0.176643426,0
0.15,70,0,0.182947917,0
0.16,70,0,0.189022246,0
0.17,70,0,0.194887506,0
0.18,70,0,0.200561022,0
0.19,70,0,0.206058045,0
0.2,70,0,0.21139264,0
0.21,70,0,0.216577663,0
0.22,70,0,0.221624378,0
0.23,70,0,0.226542287,0
0.24,70,0,0.231339383,0
0.25,70,0,0.23602268,0
0.001,5,0.01,0.095842591,0.035827073
0.002,5,0.01,0.167433621,0.040763072
0.003,5,0.01,0.22590479,0.044783025
0.004,5,0.01,0.276098522,0.0479865
0.005,5,0.01,0.320453729,0.050439502
0.006,5,0.01,0.360338503,0.052192667
0.007,5,0.01,0.396593181,0.053293238
0.008,5,0.01,0.429779076,0.053792067
0.009,5,0.01,0.460301662,0.053746493
0.01,5,0.01,0.48847463,0.053220198
0.02,5,0.01,0.683349472,0.035236071
0.03,5,0.01,0.791779196,0.017472944
0.04,5,0.01,0.857288853,0.006852444
0.05,5,0.01,0.896536352,0.00221878
0.06,5,0.01,0.920062064,0.000749118
0.07,5,0.01,0.934917634,0.00029624
0.08,5,0.01,0.944960695,0.000136058
0.09,5,0.01,0.9521624,7.02619E-05
0.1,5,0.01,0.957570115,3.96843E-05
0.11,5,0.01,0.961778313,2.40259E-05
0.12,5,0.01,0.965146314,1.53658E-05
0.13,5,0.01,0.967903278,1.02739E-05
0.14,5,0.01,0.970202017,7.12331E-06
0.15,5,0.01,0.972148287,5.09184E-06
0.16,5,0.01,0.973817591,3.73583E-06
0.17,5,0.01,0.975265274,2.80232E-06
0.18,5,0.01,0.976532834,2.14228E-06
0.19,5,0.01,0.977652,1.66522E-06
0.2,5,0.01,0.97864745,1.31406E-06
0.21,5,0.01,0.979538668,1.05152E-06
0.22,5,0.01,0.980341244,8.50725E-07
0.23,5,0.01,0.981067803,6.96181E-07
0.24,5,0.01,0.981728675,5.74497E-07
0.25,5,0.01,0.982332399,4.77435E-07
0.001,10,0.01,0.052114027,0.036600261
0.002,10,0.01,0.091099877,0.042278524
0.003,10,0.01,0.123157695,0.047238536
0.004,10,0.01,0.150989668,0.051589379
0.005,10,0.01,0.175954642,0.05540087
0.006,10,0.01,0.198806743,0.058716779
0.007,10,0.01,0.219996888,0.061564423
0.008,10,0.01,0.239812052,0.063961909
0.009,10,0.01,0.258445762,0.065923547
0.01,10,0.01,0.276036282,0.067463846
0.02,10,0.01,0.411161319,0.065235142
0.03,10,0.01,0.502238424,0.050899989
0.04,10,0.01,0.571588439,0.038562721
0.05,10,0.01,0.628177263,0.029675
0.06,10,0.01,0.676028275,0.023375046
0.07,10,0.01,0.717284057,0.018773195
0.08,10,0.01,0.753272275,0.015295024
0.09,10,0.01,0.784897411,0.012584552
0.1,10,0.01,0.812814081,0.010408711
0.11,10,0.01,0.837516311,0.008625383
0.12,10,0.01,0.859385011,0.007135369
0.13,10,0.01,0.878719632,0.00586872
0.14,10,0.01,0.89575817,0.004777828
0.15,10,0.01,0.910689516,0.00382471
0.16,10,0.01,0.923662251,0.002980122
0.17,10,0.01,0.934789298,0.002220768
0.18,10,0.01,0.944151254,0.001534078
0.19,10,0.01,0.951809268,0.000942612
0.2,10,0.01,0.957858229,0.000513261
0.21,10,0.01,0.962510812,0.000267619
0.22,10,0.01,0.966081995,0.000145218
0.23,10,0.01,0.968873763,8.45083E-05
0.24,10,0.01,0.971111667,5.26136E-05
0.25,10,0.01,0.97294908,3.46628E-05
0.001,15,0.01,0.035640432,0.035398672
0.002,15,0.01,0.062258732,0.041022802
0.003,15,0.01,0.084145832,0.045990795
0.004,15,0.01,0.103173739,0.050411084
0.005,15,0.01,0.120284834,0.05435507
0.006,15,0.01,0.136002271,0.057868567
0.007,15,0.01,0.150638231,0.060979925
0.008,15,0.01,0.164390113,0.063706241
0.009,15,0.01,0.177389284,0.066058155
0.01,15,0.01,0.189727604,0.068043644
0.02,15,0.01,0.287041453,0.070939971
0.03,15,0.01,0.355116308,0.058864099
0.04,15,0.01,0.408363699,0.046776181
0.05,15,0.01,0.453021942,0.037562976
0.06,15,0.01,0.49193879,0.030826747
0.07,15,0.01,0.526606042,0.025878178
0.08,15,0.01,0.557917342,0.022123085
0.09,15,0.01,0.586476573,0.019188961
0.1,15,0.01,0.612719461,0.016852309
0.11,15,0.01,0.636972136,0.014946702
0.12,15,0.01,0.6594897,0.013355757
0.13,15,0.01,0.68047783,0.012011202
0.14,15,0.01,0.700103346,0.010865
0.15,15,0.01,0.718502964,0.009873628
0.16,15,0.01,0.735791663,0.009003972
0.17,15,0.01,0.752067783,0.008236438
0.18,15,0.01,0.767415274,0.007556793
0.19,15,0.01,0.781905871,0.006949839
0.2,15,0.01,0.795601955,0.006401947
0.21,15,0.01,0.808558685,0.005904729
0.22,15,0.01,0.820824783,0.005453102
0.23,15,0.01,0.832442998,0.00504132
0.24,15,0.01,0.843451125,0.004662788
0.25,15,0.01,0.853883146,0.004312655
0.001,20,0.01,0.027062118,0.034527422
0.002,20,0.01,0.047249263,0.040071235
0.003,20,0.01,0.063841261,0.0449904
0.004,20,0.01,0.078269729,0.049391729
0.005,20,0.01,0.091255812,0.053346678
0.006,20,0.01,0.103200052,0.056901835
0.007,20,0.01,0.114341429,0.06008642
0.008,20,0.01,0.124830793,0.062917885
0.009,20,0.01,0.134768095,0.065406344
0.01,20,0.01,0.144222659,0.067558105
0.02,20,0.01,0.21970056,0.072813828
0.03,20,0.01,0.273383876,0.062065917
0.04,20,0.01,0.315806228,0.050214075
0.05,20,0.01,0.351724663,0.040899249
0.06,20,0.01,0.383336074,0.033950961
0.07,20,0.01,0.411791669,0.028799625
0.08,20,0.01,0.437769077,0.024894702
0.09,20,0.01,0.461718056,0.021832127
0.1,20,0.01,0.483964434,0.019379689
0.11,20,0.01,0.504752276,0.017387613
0.12,20,0.01,0.524269337,0.015734119
0.13,20,0.01,0.542666359,0.014331052
0.14,20,0.01,0.560067938,0.013127432
0.15,20,0.01,0.576577164,0.012090614
0.16,20,0.01,0.592279252,0.011189481
0.17,20,0.01,0.60724605,0.010394637
0.18,20,0.01,0.62153986,0.00968552
0.19,20,0.01,0.635215256,0.009051039
0.2,20,0.01,0.648319645,0.008483422
0.21,20,0.01,0.66089399,0.007973197
0.22,20,0.01,0.672974173,0.007509811
0.23,20,0.01,0.684592378,0.007085141
0.24,20,0.01,0.695777801,0.006695002
0.25,20,0.01,0.706556733,0.006337302
0.001,25,0.01,0.021807751,0.03392942
0.002,25,0.01,0.038061777,0.039409987
0.003,25,0.01,0.051416134,0.044284973
0.004,25,0.01,0.063029638,0.048659773
0.005,25,0.01,0.07348625,0.052605608
0.006,25,0.01,0.083110443,0.056169397
0.007,25,0.01,0.09209583,0.059380884
0.008,25,0.01,0.100564551,0.062257908
0.009,25,0.01,0.108597369,0.064810538
0.01,25,0.01,0.116250078,0.067044524
0.02,25,0.01,0.177769285,0.073635201
0.03,25,0.01,0.221942934,0.063747232
0.04,25,0.01,0.257040391,0.052079721
0.05,25,0.01,0.286899206,0.042726849
0.06,25,0.01,0.31330518,0.035665112
0.07,25,0.01,0.337196114,0.030386749
0.08,25,0.01,0.35912029,0.026385054
0.09,25,0.01,0.379436185,0.023247937
0.1,25,0.01,0.398402795,0.020724414
0.11,25,0.01,0.416215549,0.018669268
0.12,25,0.01,0.43302421,0.016970251
0.13,25,0.01,0.448947372,0.015533584
0.14,25,0.01,0.464082972,0.014296453
0.15,25,0.01,0.478513302,0.013224102
0.16,25,0.01,0.492307044,0.012292412
0.17,25,0.01,0.505521437,0.011476267
0.18,25,0.01,0.518205193,0.010751089
0.19,25,0.01,0.530401006,0.01009915
0.2,25,0.01,0.542146751,0.009511027
0.21,25,0.01,0.553475739,0.008981315
0.22,25,0.01,0.564416934,0.008503729
0.23,25,0.01,0.574995638,0.00806989
0.24,25,0.01,0.585234448,0.007671573
0.25,25,0.01,0.595153992,0.007303251
0.001,30,0.01,0.018260917,0.033503236
0.002,30,0.01,0.031863076,0.038936196
0.003,30,0.01,0.043035279,0.043776151
0.004,30,0.01,0.052750855,0.04812761
0.005,30,0.01,0.061500427,0.052061438
0.006,30,0.01,0.06955668,0.05562473
0.007,30,0.01,0.07708235,0.058847531
0.008,30,0.01,0.08418007,0.061747985
0.009,30,0.01,0.090917634,0.064336309
0.01,30,0.01,0.097341764,0.066617972
0.02,30,0.01,0.149217658,0.074060854
0.03,30,0.01,0.186698612,0.064770961
0.04,30,0.01,0.216579278,0.053245876
0.05,30,0.01,0.242073075,0.043877418
0.06,30,0.01,0.264683463,0.036747933
0.07,30,0.01,0.285201425,0.031385337
0.08,30,0.01,0.304088248,0.027315653
0.09,30,0.01,0.321642398,0.024129315
0.1,30,0.01,0.338078372,0.021560774
0.11,30,0.01,0.353558883,0.019461864
0.12,30,0.01,0.368208926,0.017727921
0.13,30,0.01,0.38212664,0.016267195
0.14,30,0.01,0.395392422,0.015010103
0.15,30,0.01,0.408074191,0.013915775
0.16,30,0.01,0.420229348,0.012961133
0.17,30,0.01,0.431905899,0.012125994
0.18,30,0.01,0.443144227,0.011387858
0.19,30,0.01,0.45397924,0.010726113
0.2,30,0.01,0.464441938,0.010127047
0.21,30,0.01,0.474560022,0.009583847
0.22,30,0.01,0.484357948,0.00909249
0.23,30,0.01,0.493857051,0.008647774
0.24,30,0.01,0.503076028,0.008242451
0.25,30,0.01,0.512031632,0.007869127
0.001,35,0.01,0.015705771,0.033186179
0.002,35,0.01,0.027399325,0.03858243
0.003,35,0.01,0.037001605,0.043394767
0.004,35,0.01,0.04535161,0.047726825
0.005,35,0.01,0.052872334,0.051649232
0.006,35,0.01,0.059798925,0.055209165
0.007,35,0.01,0.066271735,0.058436917
0.008,35,0.01,0.072379269,0.061350817
0.009,35,0.01,0.07817995,0.063961202
0.01,35,0.01,0.083713983,0.066273455
0.02,35,0.01,0.128543407,0.074305468
0.03,35,0.01,0.161074876,0.065454624
0.04,35,0.01,0.187069612,0.054041835
0.05,35,0.01,0.209290461,0.044667397
0.06,35,0.01,0.229035333,0.037493982
0.07,35,0.01,0.246988015,0.032072404
0.08,35,0.01,0.263546956,0.027952426
0.09,35,0.01,0.278968132,0.024730486
0.1,35,0.01,0.293434469,0.022131191
0.11,35,0.01,0.307085148,0.020001289
0.12,35,0.01,0.320027512,0.018240503
0.13,35,0.01,0.332345494,0.01676087
0.14,35,0.01,0.344107307,0.01548999
0.15,35,0.01,0.355370554,0.014381687
0.16,35,0.01,0.366184342,0.013411166
0.17,35,0.01,0.376590052,0.012560862
0.18,35,0.01,0.386622396,0.011811323
0.19,35,0.01,0.396311035,0.011141992
0.2,35,0.01,0.405682109,0.010536489
0.21,35,0.01,0.414759097,0.009985391
0.22,35,0.01,0.423563006,0.009484347
0.23,35,0.01,0.432112344,0.009029984
0.24,35,0.01,0.440423282,0.008617161
0.25,35,0.01,0.448510085,0.008239052
0.001,40,0.01,0.013777622,0.032940985
0.002,40,0.01,0.024031977,0.038308308
0.003,40,0.01,0.032450846,0.043098518
0.004,40,0.01,0.039771467,0.047414608
0.005,40,0.01,0.04636558,0.051326971
0.006,40,0.01,0.052439878,0.054882842
0.007,40,0.01,0.05811774,0.058112633
0.008,40,0.01,0.063476967,0.061034922
0.009,40,0.01,0.06856889,0.063660086
0.01,40,0.01,0.073428799,0.065993495
0.02,40,0.01,0.112889241,0.074456991
0.03,40,0.01,0.141617505,0.065942092
0.04,40,0.01,0.164611793,0.054619508
0.05,40,0.01,0.184294688,0.045243207
0.06,40,0.01,0.20180785,0.038039104
0.07,40,0.01,0.217753362,0.032574116
0.08,40,0.01,0.232482018,0.028415477
0.09,40,0.01,0.246218053,0.025166308
0.1,40,0.01,0.259120896,0.022544705
0.11,40,0.01,0.271312027,0.020392181
0.12,40,0.01,0.282885502,0.018610665
0.13,40,0.01,0.293914752,0.017115819
0.14,40,0.01,0.30445908,0.015834501
0.15,40,0.01,0.314568426,0.014716649
0.16,40,0.01,0.324285586,0.013735023
0.17,40,0.01,0.333646891,0.012873024
0.18,40,0.01,0.342682859,0.012113726
0.19,40,0.01,0.351419382,0.011437746
0.2,40,0.01,0.359879081,0.010827556
0.21,40,0.01,0.368082242,0.01027156
0.22,40,0.01,0.376047164,0.009764148
0.23,40,0.01,0.383790142,0.009302471
0.24,40,0.01,0.391325471,0.008882952
0.25,40,0.01,0.398665682,0.008500006
0.001,45,0.01,0.012270969,0.032747113
0.002,45,0.01,0.021401394,0.038091197
0.003,45,0.01,0.028896352,0.042863379
0.004,45,0.01,0.035413327,0.047166253
0.005,45,0.01,0.041283882,0.05106994
0.006,45,0.01,0.046692394,0.05462175
0.007,45,0.01,0.051748932,0.057852176
0.008,45,0.01,0.056522902,0.060779965
0.009,45,0.01,0.061060083,0.06341553
0.01,45,0.01,0.065391923,0.065764261
0.02,45,0.01,0.100627831,0.074556214
0.03,45,0.01,0.126344832,0.066305765
0.04,45,0.01,0.146955187,0.055056748
0.05,45,0.01,0.164615531,0.045680585
0.06,45,0.01,0.18034478,0.038454182
0.07,45,0.01,0.1946807,0.032956341
0.08,45,0.01,0.207936667,0.028767439
0.09,45,0.01,0.220312285,0.025496919
0.1,45,0.01,0.231948842,0.022858481
0.11,45,0.01,0.242954063,0.020688903
0.12,45,0.01,0.253411631,0.018891029
0.13,45,0.01,0.263386873,0.017383646
0.14,45,0.01,0.272932285,0.016093857
0.15,45,0.01,0.282091929,0.014968943
0.16,45,0.01,0.290903662,0.013979259
0.17,45,0.01,0.29939982,0.013108251
0.18,45,0.01,0.307607653,0.012340805
0.19,45,0.01,0.315550192,0.011658959
0.2,45,0.01,0.323247403,0.0110449
0.21,45,0.01,0.330717127,0.01048551
0.22,45,0.01,0.337975515,0.009973814
0.23,45,0.01,0.345037073,0.009506753
0.24,45,0.01,0.351914607,0.009081676
0.25,45,0.01,0.358619338,0.008694191
0.001,50,0.01,0.011061268,0.032589783
0.002,50,0.01,0.019289706,0.037914759
0.003,50,0.01,0.026043377,0.04267215
0.004,50,0.01,0.031915576,0.046963958
0.005,50,0.01,0.037205525,0.05086024
0.006,50,0.01,0.042079633,0.05440824
0.007,50,0.01,0.046637253,0.057638598
0.008,50,0.01,0.05094103,0.060570156
0.009,50,0.01,0.055032277,0.063213431
0.01,50,0.01,0.058939357,0.065573764
0.02,50,0.01,0.090765443,0.07462426
0.03,50,0.01,0.11404012,0.06658759
0.04,50,0.01,0.132711882,0.05539974
0.05,50,0.01,0.148723858,0.04602468
0.06,50,0.01,0.16299601,0.038781313
0.07,50,0.01,0.176014165,0.033257634
0.08,50,0.01,0.188061521,0.029044229
0.09,50,0.01,0.199317977,0.025756275
0.1,50,0.01,0.209910396,0.023104518
0.11,50,0.01,0.219935507,0.020921601
0.12,50,0.01,0.229468666,0.019110582
0.13,50,0.01,0.238568727,0.017592748
0.14,50,0.01,0.247282816,0.016295927
0.15,50,0.01,0.255650349,0.015165548
0.16,50,0.01,0.263705236,0.01416984
0.17,50,0.01,0.271476582,0.013291841
0.18,50,0.01,0.278989002,0.012517669
0.19,50,0.01,0.286263266,0.011830702
0.2,50,0.01,0.293317273,0.011213295
0.21,50,0.01,0.300166942,0.010651347
0.22,50,0.01,0.306826704,0.010136662
0.23,50,0.01,0.313309595,0.009665656
0.24,50,0.01,0.319627204,0.00923614
0.25,50,0.01,0.325789701,0.008844652
0.001,55,0.01,0.010068715,0.032459247
0.002,55,0.01,0.017557355,0.03776828
0.003,55,0.01,0.023703146,0.042513237
0.004,55,0.01,0.02904662,0.046795624
0.005,55,0.01,0.03386041,0.050685497
0.006,55,0.01,0.038296149,0.054230007
0.007,55,0.01,0.042444376,0.057459947
0.008,55,0.01,0.046362177,0.060394159
0.009,55,0.01,0.050087195,0.063043292
0.01,55,0.01,0.05364526,0.065412706
0.02,55,0.01,0.082661853,0.074671944
0.03,55,0.01,0.1039164,0.066811673
0.04,55,0.01,0.120981383,0.055675495
0.05,55,0.01,0.135624787,0.04630207
0.06,55,0.01,0.148685115,0.039045458
0.07,55,0.01,0.160605384,0.033501049
0.08,55,0.01,0.171643927,0.029267497
0.09,55,0.01,0.181964514,0.025965103
0.1,55,0.01,0.191682261,0.023302574
0.11,55,0.01,0.200884921,0.021109005
0.12,55,0.01,0.209641016,0.019287253
0.13,55,0.01,0.218004107,0.017760629
0.14,55,0.01,0.226016967,0.016457839
0.15,55,0.01,0.233715257,0.015323062
0.16,55,0.01,0.241129666,0.014322704
0.17,55,0.01,0.248286636,0.013439176
0.18,55,0.01,0.255208609,0.012659423
0.19,55,0.01,0.261914513,0.011967985
0.2,55,0.01,0.268420587,0.011347618
0.21,55,0.01,0.274741208,0.010783605
0.22,55,0.01,0.280889401,0.010266715
0.23,55,0.01,0.286876988,0.00979277
0.24,55,0.01,0.292714536,0.009359717
0.25,55,0.01,0.298411349,0.008964795
0.001,60,0.01,0.009239585,0.032349522
0.002,60,0.01,0.016110441,0.037645001
0.003,60,0.01,0.021748701,0.042379399
0.004,60,0.01,0.02665075,0.046653759
0.005,60,0.01,0.03106697,0.050538075
0.006,60,0.01,0.035136629,0.054079464
0.007,60,0.01,0.038942887,0.057308755
0.008,60,0.01,0.042538179,0.060244928
0.009,60,0.01,0.045957075,0.062898673
0.01,60,0.01,0.04922329,0.065275328
0.02,60,0.01,0.075885294,0.074706521
0.03,60,0.01,0.095441469,0.066994233
0.04,60,0.01,0.111153363,0.055902228
0.05,60,0.01,0.124642707,0.046530644
0.06,60,0.01,0.136679789,0.03926343
0.07,60,0.01,0.147671733,0.033702029
0.08,60,0.01,0.157856025,0.029451641
0.09,60,0.01,0.167382983,0.026137062
0.1,60,0.01,0.176357977,0.023465615
0.11,60,0.01,0.184861293,0.021263337
0.12,60,0.01,0.192955748,0.019432677
0.13,60,0.01,0.20069049,0.017898553
0.14,60,0.01,0.208104688,0.016590605
0.15,60,0.01,0.215230904,0.015452151
0.16,60,0.01,0.222097156,0.014448058
0.17,60,0.01,0.228727657,0.013560055
0.18,60,0.01,0.235143023,0.012775599
0.19,60,0.01,0.241360646,0.012080224
0.2,60,0.01,0.247395402,0.01145719
0.21,60,0.01,0.253260401,0.010891394
0.22,60,0.01,0.258967508,0.010372794
0.23,60,0.01,0.264527523,0.009896594
0.24,60,0.01,0.269950147,0.009460708
0.25,60,0.01,0.275243951,0.009062863
0.001,65,0.01,0.008536596,0.032256114
0.002,65,0.01,0.014883805,0.037540078
0.003,65,0.01,0.020091938,0.042265306
0.004,65,0.01,0.024619899,0.046532726
0.005,65,0.01,0.028699176,0.050412154
0.006,65,0.01,0.032458537,0.053950748
0.007,65,0.01,0.035974875,0.057179365
0.008,65,0.01,0.039296674,0.060117013
0.009,65,0.01,0.042455896,0.062774437
0.01,65,0.01,0.04547446,0.06515702
0.02,65,0.01,0.070134763,0.074732361
0.03,65,0.01,0.088243322,0.067145937
0.04,65,0.01,0.102800342,0.056092058
0.05,65,0.01,0.115303606,0.046722307
0.06,65,0.01,0.126465438,0.039446336
0.07,65,0.01,0.136662439,0.033870642
0.08,65,0.01,0.146114367,0.029605847
0.09,65,0.01,0.154960143,0.026280743
0.1,65,0.01,0.163296911,0.023601693
0.11,65,0.01,0.171198655,0.021392135
0.12,65,0.01,0.178723354,0.019553961
0.13,65,0.01,0.185916415,0.018013408
0.14,65,0.01,0.192813973,0.01670102
0.15,65,0.01,0.19944599,0.015559515
0.16,65,0.01,0.205838234,0.014552451
0.17,65,0.01,0.212013029,0.013660861
0.18,65,0.01,0.217989435,0.012872519
0.19,65,0.01,0.223783547,0.012173786
0.2,65,0.01,0.229409094,0.011548422
0.21,65,0.01,0.234878134,0.010981134
0.22,65,0.01,0.24020156,0.010461222
0.23,65,0.01,0.245389305,0.009983289
0.24,65,0.01,0.25045033,0.009545137
0.25,65,0.01,0.255392581,0.009144829
0.001,70,0.01,0.007933001,0.032175561
0.002,70,0.01,0.013830713,0.037449626
0.003,70,0.01,0.018669676,0.042166905
0.004,70,0.01,0.022876577,0.046428346
0.005,70,0.01,0.026666661,0.050303468
0.006,70,0.01,0.030159667,0.053839567
0.007,70,0.01,0.033427099,0.057067432
0.008,70,0.01,0.036514045,0.060006224
0.009,70,0.01,0.039450224,0.062666645
0.01,70,0.01,0.042256014,0.065054155
0.02,70,0.01,0.06519382,0.07475191
0.03,70,0.01,0.08205393,0.067273692
0.04,70,0.01,0.095613839,0.056252879
0.05,70,0.01,0.107264949,0.046884827
0.06,70,0.01,0.117669723,0.039601507
0.07,70,0.01,0.127178489,0.034013791
0.08,70,0.01,0.135995737,0.029736762
0.09,70,0.01,0.144250606,0.026402731
0.1,70,0.01,0.152033213,0.023717332
0.11,70,0.01,0.159412156,0.021501741
0.12,70,0.01,0.166441265,0.019657248
0.13,70,0.01,0.173162744,0.018111173
0.14,70,0.01,0.179610134,0.016794896
0.15,70,0.01,0.185811188,0.015650744
0.16,70,0.01,0.191789757,0.014641192
0.17,70,0.01,0.197566543,0.013746582
0.18,70,0.01,0.203159265,0.012954875
0.19,70,0.01,0.208582904,0.012253144
0.2,70,0.01,0.21385021,0.011625618
0.21,70,0.01,0.218972347,0.01105693
0.22,70,0.01,0.223959383,0.010535867
0.23,70,0.01,0.228820509,0.010056498
0.24,70,0.01,0.233564044,0.009616439
0.25,70,0.01,0.238197388,0.009213979
0.001,5,0.02,0.097795462,0.056932895
0.002,5,0.02,0.171320462,0.064923576
0.003,5,0.02,0.231684778,0.071514788
0.004,5,0.02,0.283705197,0.076859138
0.005,5,0.02,0.329792591,0.081052064
0.006,5,0.02,0.371286589,0.084161207
0.007,5,0.02,0.40900101,0.08624661
0.008,5,0.02,0.443474919,0.087373438
0.009,5,0.02,0.475097659,0.087618258
0.01,5,0.02,0.504173938,0.08707012
0.02,5,0.02,0.699118828,0.05912576
0.03,5,0.02,0.801223883,0.029609805
0.04,5,0.02,0.861559859,0.011868575
0.05,5,0.02,0.898156147,0.004029514
0.06,5,0.02,0.920675749,0.001416621
0.07,5,0.02,0.935176447,0.000573152
0.08,5,0.02,0.945083899,0.000266456
0.09,5,0.02,0.952227403,0.000138535
0.1,5,0.02,0.957607344,7.85645E-05
0.11,5,0.02,0.961801069,4.76868E-05
0.12,5,0.02,0.96516097,3.05513E-05
0.13,5,0.02,0.967913128,2.04506E-05
0.14,5,0.02,0.970208876,1.4193E-05
0.15,5,0.02,0.972153206,1.01518E-05
0.16,5,0.02,0.973821209,7.45112E-06
0.17,5,0.02,0.975267994,5.59131E-06
0.18,5,0.02,0.976534917,4.27534E-06
0.19,5,0.02,0.977653623,3.32532E-06
0.2,5,0.02,0.978648732,2.62403E-06
0.21,5,0.02,0.979539695,2.09997E-06
0.22,5,0.02,0.980342076,1.69941E-06
0.23,5,0.02,0.981068484,1.39032E-06
0.24,5,0.02,0.981729238,1.14798E-06
0.25,5,0.02,0.982332869,9.55889E-07
0.001,10,0.02,0.053291126,0.06001394
0.002,10,0.02,0.09347455,0.069447283
0.003,10,0.02,0.126747541,0.077763831
0.004,10,0.02,0.155808062,0.085147781
0.005,10,0.02,0.182009225,0.091717116
0.006,10,0.02,0.20609787,0.097544629
0.007,10,0.02,0.228516163,0.102673001
0.008,10,0.02,0.249541112,0.107126334
0.009,10,0.02,0.26935547,0.110919118
0.01,10,0.02,0.288086452,0.114063231
0.02,10,0.02,0.430757358,0.116004484
0.03,10,0.02,0.52267347,0.093658943
0.04,10,0.02,0.590130093,0.072252469
0.05,10,0.02,0.644310877,0.056120368
0.06,10,0.02,0.689911415,0.044391414
0.07,10,0.02,0.729214767,0.035718626
0.08,10,0.02,0.763528009,0.029118174
0.09,10,0.02,0.793707872,0.023950797
0.1,10,0.02,0.820364277,0.019794356
0.11,10,0.02,0.843954358,0.016378758
0.12,10,0.02,0.864832047,0.013518891
0.13,10,0.02,0.883275725,0.011084071
0.14,10,0.02,0.899506933,0.00898284
0.15,10,0.02,0.913702552,0.007145886
0.16,10,0.02,0.926002887,0.005521756
0.17,10,0.02,0.936518473,0.004074678
0.18,10,0.02,0.945338483,0.002793463
0.19,10,0.02,0.952550082,0.001721668
0.2,10,0.02,0.958280927,0.000954782
0.21,10,0.02,0.962743542,0.000509478
0.22,10,0.02,0.966213481,0.00028134
0.23,10,0.02,0.968952248,0.000165522
0.24,10,0.02,0.971161307,0.000103733
0.25,10,0.02,0.972982117,6.86195E-05
0.001,15,0.02,0.036434782,0.058475523
0.002,15,0.02,0.063863765,0.067860418
0.003,15,0.02,0.086577036,0.07621234
0.004,15,0.02,0.106445097,0.083716755
0.005,15,0.02,0.124408054,0.090497099
0.006,15,0.02,0.140985922,0.096632976
0.007,15,0.02,0.156486846,0.102173074
0.008,15,0.02,0.171103313,0.107144819
0.009,15,0.02,0.184961007,0.111562015
0.01,15,0.02,0.198145524,0.115431087
0.02,15,0.02,0.301983875,0.126689539
0.03,15,0.02,0.372034105,0.109308552
0.04,15,0.02,0.424747233,0.088772796
0.05,15,0.02,0.468120502,0.072143436
0.06,15,0.02,0.5056654,0.059589994
0.07,15,0.02,0.539080895,0.050180366
0.08,15,0.02,0.569302971,0.042981935
0.09,15,0.02,0.596917789,0.037333884
0.1,15,0.02,0.622335867,0.032811431
0.11,15,0.02,0.645863808,0.029114626
0.12,15,0.02,0.667738464,0.026030606
0.13,15,0.02,0.688149319,0.023420292
0.14,15,0.02,0.707252357,0.021187311
0.15,15,0.02,0.725177124,0.019254324
0.16,15,0.02,0.74203171,0.017561057
0.17,15,0.02,0.757907834,0.016065722
0.18,15,0.02,0.772884767,0.014737814
0.19,15,0.02,0.787031313,0.013550458
0.2,15,0.02,0.800407055,0.01248019
0.21,15,0.02,0.813063985,0.011509643
0.22,15,0.02,0.825048192,0.010626483
0.23,15,0.02,0.836400816,0.00981975
0.24,15,0.02,0.847158417,0.009078667
0.25,15,0.02,0.857353439,0.008394313
0.001,20,0.02,0.02765484,0.057185928
0.002,20,0.02,0.048447527,0.066447941
0.003,20,0.02,0.065657558,0.074720592
0.004,20,0.02,0.08071581,0.082187258
0.005,20,0.02,0.094342202,0.08897223
0.006,20,0.02,0.106935481,0.095157453
0.007,20,0.02,0.118732221,0.10079449
0.008,20,0.02,0.129880245,0.105913308
0.009,20,0.02,0.14047588,0.110529119
0.01,20,0.02,0.150584324,0.114648119
0.02,20,0.02,0.231416445,0.130023347
0.03,20,0.02,0.287134419,0.115485246
0.04,20,0.02,0.329473795,0.095665589
0.05,20,0.02,0.364577306,0.078935553
0.06,20,0.02,0.395223467,0.066014162
0.07,20,0.02,0.42276195,0.056207224
0.08,20,0.02,0.447929399,0.04868181
0.09,20,0.02,0.471175406,0.042762268
0.1,20,0.02,0.492807234,0.038005377
0.11,20,0.02,0.513053748,0.034120207
0.12,20,0.02,0.532092084,0.030890128
0.13,20,0.02,0.550062219,0.028155108
0.14,20,0.02,0.567078278,0.025808693
0.15,20,0.02,0.583236142,0.023779403
0.16,20,0.02,0.598617116,0.022010021
0.17,20,0.02,0.613289903,0.020450983
0.18,20,0.02,0.627312896,0.019063762
0.19,20,0.02,0.640736759,0.017822047
0.2,20,0.02,0.653606285,0.016706972
0.21,20,0.02,0.665961175,0.015701496
0.22,20,0.02,0.677836348,0.014788975
0.23,20,0.02,0.689262483,0.013955204
0.24,20,0.02,0.700266909,0.013190125
0.25,20,0.02,0.710874415,0.012486907
0.001,25,0.02,0.022278833,0.056263935
0.002,25,0.02,0.039014375,0.065424008
0.003,25,0.02,0.052860543,0.073621574
0.004,25,0.02,0.064975725,0.081037925
0.005,25,0.02,0.075943102,0.087797173
0.006,25,0.02,0.086085955,0.093982271
0.007,25,0.02,0.095596249,0.0996463
0.008,25,0.02,0.104594003,0.104820791
0.009,25,0.02,0.113157392,0.109522123
0.01,25,0.02,0.121339201,0.11375693
0.02,25,0.02,0.18733337,0.131397364
0.03,25,0.02,0.233401403,0.11866637
0.04,25,0.02,0.268596157,0.099378074
0.05,25,0.02,0.297881945,0.082643295
0.06,25,0.02,0.323550674,0.069532732
0.07,25,0.02,0.346719847,0.059488888
0.08,25,0.02,0.367997873,0.051757662
0.09,25,0.02,0.387751731,0.04567296
0.1,25,0.02,0.40622758,0.040771836
0.11,25,0.02,0.42360724,0.036760107
0.12,25,0.02,0.440032098,0.033428484
0.13,25,0.02,0.455613945,0.030613589
0.14,25,0.02,0.470442931,0.028196734
0.15,25,0.02,0.484594208,0.026100067
0.16,25,0.02,0.49813203,0.024269874
0.17,25,0.02,0.51111149,0.022661166
0.18,25,0.02,0.523579498,0.021233586
0.19,25,0.02,0.535576158,0.019954743
0.2,25,0.02,0.547136461,0.018802178
0.21,25,0.02,0.558291602,0.017760591
0.22,25,0.02,0.569069577,0.016817101
0.23,25,0.02,0.579495306,0.015958611
0.24,25,0.02,0.589590783,0.015172421
0.25,25,0.02,0.599375508,0.014448203
0.001,30,0.02,0.018651254,0.055594928
0.002,30,0.02,0.032652513,0.064676795
0.003,30,0.02,0.044232526,0.072814138
0.004,30,0.02,0.054364344,0.080186662
0.005,30,0.02,0.063538046,0.086918112
0.006,30,0.02,0.072025448,0.093091909
0.007,30,0.02,0.079988059,0.098762023
0.008,30,0.02,0.087526906,0.103961022
0.009,30,0.02,0.094707794,0.108706193
0.01,30,0.02,0.101575105,0.113004614
0.02,30,0.02,0.157275841,0.132063232
0.03,30,0.02,0.19648312,0.120573518
0.04,30,0.02,0.226539719,0.101684459
0.05,30,0.02,0.251602653,0.084971254
0.06,30,0.02,0.273619818,0.071751055
0.07,30,0.02,0.29354386,0.061554418
0.08,30,0.02,0.311893051,0.053682986
0.09,30,0.02,0.328978196,0.04748695
0.1,30,0.02,0.345005172,0.042491268
0.11,30,0.02,0.360124651,0.038393789
0.12,30,0.02,0.374454,0.034989279
0.13,30,0.02,0.388086421,0.032117254
0.14,30,0.02,0.401096776,0.029653724
0.15,30,0.02,0.413546887,0.027513432
0.16,30,0.02,0.425489498,0.025640703
0.17,30,0.02,0.436970251,0.02399377
0.18,30,0.02,0.448028409,0.022535024
0.19,30,0.02,0.458697519,0.021230752
0.2,30,0.02,0.469006494,0.02005462
0.21,30,0.02,0.478980832,0.018988723
0.22,30,0.02,0.488643482,0.018020804
0.23,30,0.02,0.498015178,0.017140283
0.24,30,0.02,0.507114467,0.01633611
0.25,30,0.02,0.515957776,0.015597242
0.001,35,0.02,0.01603877,0.055092138
0.002,35,0.02,0.028072864,0.064113197
0.003,35,0.02,0.038023212,0.07220269
0.004,35,0.02,0.046728627,0.079539095
0.005,35,0.02,0.054611691,0.086245652
0.006,35,0.02,0.061906882,0.092406081
0.007,35,0.02,0.068753587,0.098074989
0.008,35,0.02,0.075239027,0.103285566
0.009,35,0.02,0.081420024,0.108055795
0.01,35,0.02,0.087334879,0.112393173
0.02,35,0.02,0.135496741,0.13241817
0.03,35,0.02,0.169597896,0.121831455
0.04,35,0.02,0.195803183,0.103251052
0.05,35,0.02,0.217684569,0.086566349
0.06,35,0.02,0.236934714,0.073276934
0.07,35,0.02,0.254383439,0.062975171
0.08,35,0.02,0.270482107,0.055002654
0.09,35,0.02,0.285500555,0.048725962
0.1,35,0.02,0.299616008,0.043663576
0.11,35,0.02,0.31295711,0.039505355
0.12,35,0.02,0.325624032,0.036047108
0.13,35,0.02,0.337696657,0.033131946
0.14,35,0.02,0.349239139,0.030634463
0.15,35,0.02,0.3603041,0.028464167
0.16,35,0.02,0.370936206,0.026561898
0.17,35,0.02,0.381174229,0.024886621
0.18,35,0.02,0.391051824,0.023403371
0.19,35,0.02,0.400597899,0.022079432
0.2,35,0.02,0.409837257,0.020886782
0.21,35,0.02,0.418791543,0.019804854
0.22,35,0.02,0.427480114,0.018820052
0.23,35,0.02,0.435920545,0.017922553
0.24,35,0.02,0.444128746,0.017103076
0.25,35,0.02,0.45211895,0.016351687
0.001,40,0.02,0.014067862,0.054700966
0.002,40,0.02,0.024619069,0.063673782
0.003,40,0.02,0.033341414,0.071724895
0.004,40,0.02,0.040971999,0.079031615
0.005,40,0.02,0.047882243,0.085716893
0.006,40,0.02,0.054278298,0.091864577
0.007,40,0.02,0.060282752,0.097529626
0.008,40,0.02,0.065972344,0.102745833
0.009,40,0.02,0.071397071,0.107531633
0.01,40,0.02,0.076590622,0.111894869
0.02,40,0.02,0.119000188,0.13261975
0.03,40,0.02,0.149160713,0.122719133
0.04,40,0.02,0.172379255,0.104383361
0.05,40,0.02,0.191785335,0.087727057
0.06,40,0.02,0.208875016,0.074390488
0.07,40,0.02,0.22438317,0.064012291
0.08,40,0.02,0.238709501,0.055963586
0.09,40,0.02,0.252092527,0.049625574
0.1,40,0.02,0.264687975,0.044513551
0.11,40,0.02,0.276608109,0.040310504
0.12,40,0.02,0.287940228,0.03681166
0.13,40,0.02,0.298754184,0.033863066
0.14,40,0.02,0.309106148,0.031339547
0.15,40,0.02,0.319042012,0.029147284
0.16,40,0.02,0.328600512,0.027223725
0.17,40,0.02,0.33781528,0.025527267
0.18,40,0.02,0.346715688,0.024024685
0.19,40,0.02,0.355327122,0.022684808
0.2,40,0.02,0.363671366,0.021479317
0.21,40,0.02,0.371767301,0.020385903
0.22,40,0.02,0.379631678,0.019389307
0.23,40,0.02,0.387279685,0.018479372
0.24,40,0.02,0.394725167,0.017647767
0.25,40,0.02,0.401980628,0.016885787
0.001,45,0.02,0.012528129,0.054390167
0.002,45,0.02,0.021921597,0.063324046
0.003,45,0.02,0.02968551,0.071343928
0.004,45,0.02,0.036477245,0.078626133
0.005,45,0.02,0.042628109,0.085293383
0.006,45,0.02,0.048322025,0.091429549
0.007,45,0.02,0.053668399,0.097089939
0.008,45,0.02,0.058735732,0.10230872
0.009,45,0.02,0.063568663,0.107104677
0.01,45,0.02,0.068197263,0.11148598
0.02,45,0.02,0.106076411,0.132738979
0.03,45,0.02,0.133106966,0.123375788
0.04,45,0.02,0.153944729,0.105237783
0.05,45,0.02,0.171373325,0.088607847
0.06,45,0.02,0.186732862,0.075237783
0.07,45,0.02,0.200682666,0.064802173
0.08,45,0.02,0.213581365,0.056694603
0.09,45,0.02,0.225642724,0.050308739
0.1,45,0.02,0.237005714,0.045158504
0.11,45,0.02,0.247769953,0.040921227
0.12,45,0.02,0.258012772,0.037390817
0.13,45,0.02,0.267796202,0.034415547
0.14,45,0.02,0.277170219,0.031871172
0.15,45,0.02,0.286175554,0.029661857
0.16,45,0.02,0.294846423,0.02772222
0.17,45,0.02,0.303212494,0.026009567
0.18,45,0.02,0.311299772,0.024491617
0.19,45,0.02,0.319130862,0.023138645
0.2,45,0.02,0.326725205,0.021922679
0.21,45,0.02,0.334099586,0.020820402
0.22,45,0.02,0.341268796,0.019815141
0.23,45,0.02,0.348246191,0.018895965
0.24,45,0.02,0.355043983,0.018054865
0.25,45,0.02,0.361673283,0.01728407
0.001,50,0.02,0.011292087,0.054137162
0.002,50,0.02,0.019756644,0.063039136
0.003,50,0.02,0.026751765,0.071033159
0.004,50,0.02,0.032870668,0.078294957
0.005,50,0.02,0.038412358,0.08494692
0.006,50,0.02,0.043542859,0.091072951
0.007,50,0.02,0.048360951,0.096728584
0.008,50,0.02,0.052928496,0.101948337
0.009,50,0.02,0.05728581,0.106751273
0.01,50,0.02,0.061460053,0.111145817
0.02,50,0.02,0.095680087,0.132811556
0.03,50,0.02,0.120165958,0.12388096
0.04,50,0.02,0.139062838,0.105906124
0.05,50,0.02,0.154876742,0.089299973
0.06,50,0.02,0.168821109,0.075904946
0.07,50,0.02,0.181493749,0.065424488
0.08,50,0.02,0.193219849,0.057269821
0.09,50,0.02,0.204193096,0.050845251
0.1,50,0.02,0.214539009,0.045664406
0.11,50,0.02,0.224347141,0.041400024
0.12,50,0.02,0.233686881,0.037844414
0.13,50,0.02,0.242613991,0.034847446
0.14,50,0.02,0.251173488,0.032286016
0.15,50,0.02,0.259402005,0.030063051
0.16,50,0.02,0.267330202,0.028110903
0.17,50,0.02,0.274984607,0.026385615
0.18,50,0.02,0.282388525,0.024855349
0.19,50,0.02,0.289562312,0.023491563
0.2,50,0.02,0.296523525,0.022266871
0.21,50,0.02,0.303287295,0.021157464
0.22,50,0.02,0.309866883,0.020145557
0.23,50,0.02,0.316274214,0.019219382
0.24,50,0.02,0.32252019,0.018370863
0.25,50,0.02,0.328614784,0.017592841
0.001,55,0.02,0.010278069,0.053926681
0.002,55,0.02,0.017980884,0.062801946
0.003,55,0.02,0.024345704,0.070774263
0.004,55,0.02,0.029913003,0.078018738
0.005,55,0.02,0.034955227,0.084657571
0.006,55,0.02,0.039623677,0.09077467
0.007,55,0.02,0.044008388,0.09642577
0.008,55,0.02,0.048165757,0.101645581
0.009,55,0.02,0.052132544,0.10645348
0.01,55,0.02,0.055933508,0.110858073
0.02,55,0.02,0.087137191,0.132855011
0.03,55,0.02,0.109514308,0.124280115
0.04,55,0.02,0.126799297,0.106442226
0.05,55,0.02,0.141270567,0.089857465
0.06,55,0.02,0.154036672,0.076443358
0.07,55,0.02,0.16564437,0.065927093
0.08,55,0.02,0.1763911,0.057734049
0.09,55,0.02,0.18645393,0.051277643
0.1,55,0.02,0.195947329,0.046071792
0.11,55,0.02,0.20495265,0.041785494
0.12,55,0.02,0.213532809,0.038209385
0.13,55,0.02,0.221738439,0.035194503
0.14,55,0.02,0.229610488,0.032618849
0.15,55,0.02,0.237182259,0.030384668
0.16,55,0.02,0.244481536,0.028422495
0.17,55,0.02,0.251532303,0.026687114
0.18,55,0.02,0.258355661,0.025146822
0.19,55,0.02,0.264970109,0.023773995
0.2,55,0.02,0.271391651,0.02254191
0.21,55,0.02,0.277634073,0.021426568
0.22,55,0.02,0.283709409,0.020409355
0.23,55,0.02,0.289628431,0.019477712
0.24,55,0.02,0.295400982,0.018623317
0.25,55,0.02,0.301036089,0.017839358
0.001,60,0.02,0.009431116,0.053749502
0.002,60,0.02,0.016497923,0.062602031
0.003,60,0.02,0.022336589,0.070555902
0.004,60,0.02,0.027443454,0.07778559
0.005,60,0.02,0.032068737,0.0844131
0.006,60,0.02,0.036351414,0.090522343
0.007,60,0.02,0.040374198,0.096169193
0.008,60,0.02,0.044188907,0.101388579
0.009,60,0.02,0.047829321,0.106200119
0.01,60,0.02,0.051318191,0.110612532
0.02,60,0.02,0.079993007,0.132880981
0.03,60,0.02,0.100594562,0.124603578
0.04,60,0.02,0.116519946,0.106882124
0.05,60,0.02,0.12985764,0.090316496
0.06,60,0.02,0.141627941,0.076887379
0.07,60,0.02,0.152334569,0.066341877
0.08,60,0.02,0.162251567,0.058116989
0.09,60,0.02,0.171542019,0.051633925
0.1,60,0.02,0.180311147,0.046407212
0.11,60,0.02,0.188633493,0.042102798
0.12,60,0.02,0.1965666,0.038509696
0.13,60,0.02,0.204156826,0.035479747
0.14,60,0.02,0.211441726,0.032892023
0.15,60,0.02,0.218451832,0.030648381
0.16,60,0.02,0.225212553,0.028677905
0.17,60,0.02,0.231745779,0.026934248
0.18,60,0.02,0.238070777,0.025385617
0.19,60,0.02,0.244204488,0.024005102
0.2,60,0.02,0.250161613,0.022766632
0.21,60,0.02,0.25595482,0.021646194
0.22,60,0.02,0.261595131,0.020624577
0.23,60,0.02,0.267092375,0.019688526
0.24,60,0.02,0.272455518,0.018829377
0.25,60,0.02,0.277692799,0.018040505
0.001,65,0.02,0.008713093,0.053598357
0.002,65,0.02,0.015240879,0.062431467
0.003,65,0.02,0.020633707,0.070369466
0.004,65,0.02,0.025350443,0.077586395
0.005,65,0.02,0.029622433,0.084204078
0.006,65,0.02,0.033578183,0.090306414
0.007,65,0.02,0.037294184,0.095949374
0.008,65,0.02,0.040818366,0.10116811
0.009,65,0.02,0.044181973,0.105982346
0.01,65,0.02,0.047406049,0.110401001
0.02,65,0.02,0.073930401,0.132896028
0.03,65,0.02,0.093016667,0.12487105
0.04,65,0.02,0.107780043,0.107249695
0.05,65,0.02,0.120148165,0.090701053
0.06,65,0.02,0.131066047,0.07725972
0.07,65,0.02,0.141000641,0.066689753
0.08,65,0.02,0.150205997,0.058437824
0.09,65,0.02,0.158833266,0.05193193
0.1,65,0.02,0.166979817,0.046687425
0.11,65,0.02,0.174714436,0.042367714
0.12,65,0.02,0.18209014,0.038760293
0.13,65,0.02,0.189149667,0.035717568
0.14,65,0.02,0.195927695,0.033119562
0.15,65,0.02,0.202452417,0.030867947
0.16,65,0.02,0.208747248,0.028890639
0.17,65,0.02,0.214832317,0.02714023
0.18,65,0.02,0.220725346,0.025584736
0.19,65,0.02,0.226441959,0.024197793
0.2,65,0.02,0.231995745,0.022953911
0.21,65,0.02,0.237398425,0.021829171
0.22,65,0.02,0.242660174,0.020803928
0.23,65,0.02,0.247790037,0.019864319
0.24,65,0.02,0.252796243,0.019001324
0.25,65,0.02,0.257686368,0.018208378
0.001,70,0.02,0.008096648,0.053467936
0.002,70,0.02,0.014161795,0.062284274
0.003,70,0.02,0.019172021,0.070208492
0.004,70,0.02,0.02355398,0.07741435
0.005,70,0.02,0.027522792,0.084023376
0.006,70,0.02,0.031197959,0.090119582
0.007,70,0.02,0.034650623,0.095759015
0.008,70,0.02,0.037925363,0.100976921
0.009,70,0.02,0.041051246,0.105793211
0.01,70,0.02,0.044047847,0.110216937
0.02,70,0.02,0.068721272,0.132903676
0.03,70,0.02,0.086499361,0.125095317
0.04,70,0.02,0.100258312,0.107560703
0.05,70,0.02,0.111787815,0.091027111
0.06,70,0.02,0.121967922,0.077575712
0.07,70,0.02,0.131233804,0.066985182
0.08,70,0.02,0.139822234,0.058710351
0.09,70,0.02,0.147874056,0.052185077
0.1,70,0.02,0.155479885,0.046925536
0.11,70,0.02,0.162703587,0.042592996
0.12,70,0.02,0.169594308,0.038973511
0.13,70,0.02,0.176191693,0.035919893
0.14,70,0.02,0.182527951,0.033313014
0.15,70,0.02,0.188629273,0.0310545
0.16,70,0.02,0.194517376,0.02907134
0.17,70,0.02,0.200210892,0.027315173
0.18,70,0.02,0.205726227,0.025753783
0.19,70,0.02,0.211077869,0.024361213
0.2,70,0.02,0.216278453,0.023112503
0.21,70,0.02,0.221338883,0.021983892
0.22,70,0.02,0.226268614,0.020955438
0.23,70,0.02,0.231076022,0.020012754
0.24,70,0.02,0.235768714,0.019146463
0.25,70,0.02,0.240353695,0.018349995
0.001,5,0.03,0.09909156,0.070940586
0.002,5,0.03,0.173907639,0.081005401
0.003,5,0.03,0.23554598,0.089372392
0.004,5,0.03,0.288808244,0.096228761
0.005,5,0.03,0.336087614,0.101686995
0.006,5,0.03,0.378704527,0.105821673
0.007,5,0.03,0.417453618,0.108695495
0.008,5,0.03,0.452856501,0.110376504
0.009,5,0.03,0.4852884,0.110947432
0.01,5,0.03,0.515044393,0.110508354
0.02,5,0.03,0.710459623,0.076306427
0.03,5,0.03,0.808209914,0.038587178
0.04,5,0.03,0.864887445,0.015776695
0.05,5,0.03,0.899521814,0.005556164
0.06,5,0.03,0.921228916,0.0020183
0.07,5,0.03,0.935419349,0.00083304
0.08,5,0.03,0.94520216,0.000391622
0.09,5,0.03,0.952290611,0.000204924
0.1,5,0.03,0.95764383,0.000116669
0.11,5,0.03,0.961823484,7.09931E-05
0.12,5,0.03,0.965175456,4.55606E-05
0.13,5,0.03,0.967922888,3.05344E-05
0.14,5,0.03,0.970215682,2.12081E-05
0.15,5,0.03,0.972158095,1.51809E-05
0.16,5,0.03,0.973824808,1.11469E-05
0.17,5,0.03,0.975270701,8.36698E-06
0.18,5,0.03,0.976536993,6.40123E-06
0.19,5,0.03,0.97765524,4.97929E-06
0.2,5,0.03,0.978650011,3.93094E-06
0.21,5,0.03,0.979540719,3.14536E-06
0.22,5,0.03,0.980342906,2.54605E-06
0.23,5,0.03,0.981069163,2.08243E-06
0.24,5,0.03,0.9817298,1.72044E-06
0.25,5,0.03,0.982333337,1.43231E-06
0.001,10,0.03,0.054130744,0.076714784
0.002,10,0.03,0.095172472,0.088873299
0.003,10,0.03,0.129322082,0.099655753
0.004,10,0.03,0.159276355,0.109303209
0.005,10,0.03,0.186386231,0.117971018
0.006,10,0.03,0.211395243,0.125755029
0.007,10,0.03,0.234741023,0.132710198
0.008,10,0.03,0.256694837,0.138864901
0.009,10,0.03,0.277432606,0.14423214
0.01,10,0.03,0.297073865,0.148818584
0.02,10,0.03,0.446575854,0.156986981
0.03,10,0.03,0.540084247,0.130089818
0.04,10,0.03,0.606412048,0.101836398
0.05,10,0.03,0.658717427,0.079734824
0.06,10,0.03,0.702415864,0.063320713
0.07,10,0.03,0.739999679,0.051036656
0.08,10,0.03,0.77280683,0.041624595
0.09,10,0.03,0.801670761,0.034223603
0.1,10,0.03,0.82717067,0.028255379
0.11,10,0.03,0.849735676,0.02334123
0.12,10,0.03,0.869697052,0.019220315
0.13,10,0.03,0.887316239,0.01570924
0.14,10,0.03,0.902801956,0.012678889
0.15,10,0.03,0.916322349,0.010033606
0.16,10,0.03,0.92801352,0.007705048
0.17,10,0.03,0.937987469,0.00564964
0.18,10,0.03,0.946342841,0.003858863
0.19,10,0.03,0.953184271,0.002388594
0.2,10,0.03,0.958654048,0.001344519
0.21,10,0.03,0.962956635,0.00073093
0.22,10,0.03,0.966337433,0.000409662
0.23,10,0.03,0.969027674,0.000243377
0.24,10,0.03,0.971209592,0.000153457
0.25,10,0.03,0.9730145,0.000101904
0.001,15,0.03,0.03701103,0.075216241
0.002,15,0.03,0.065030198,0.087364242
0.003,15,0.03,0.088347943,0.098225937
0.004,15,0.03,0.108834776,0.10804606
0.005,15,0.03,0.127430364,0.116989116
0.006,15,0.03,0.144653739,0.125162414
0.007,15,0.03,0.160811423,0.13263207
0.008,15,0.03,0.176093587,0.139434995
0.009,15,0.03,0.190622879,0.145588224
0.01,15,0.03,0.204481176,0.151096708
0.02,15,0.03,0.314163716,0.17213203
0.03,15,0.03,0.386721746,0.153103262
0.04,15,0.03,0.439508157,0.126610106
0.05,15,0.03,0.482020089,0.103977869
0.06,15,0.03,0.518466035,0.086412918
0.07,15,0.03,0.550800881,0.073012003
0.08,15,0.03,0.580043965,0.062659793
0.09,15,0.03,0.606794483,0.054497771
0.1,15,0.03,0.63144994,0.047936895
0.11,15,0.03,0.654301123,0.042558582
0.12,15,0.03,0.675571935,0.038067326
0.13,15,0.03,0.695439898,0.03426289
0.14,15,0.03,0.714050345,0.031002788
0.15,15,0.03,0.731525138,0.028176615
0.16,15,0.03,0.747967019,0.02570025
0.17,15,0.03,0.763462883,0.023512927
0.18,15,0.03,0.778087355,0.021568409
0.19,15,0.03,0.791905613,0.019827653
0.2,15,0.03,0.80497477,0.018258151
0.21,15,0.03,0.817344711,0.016835172
0.22,15,0.03,0.829059272,0.015539776
0.23,15,0.03,0.840157534,0.014355384
0.24,15,0.03,0.850674594,0.013266903
0.25,15,0.03,0.860641824,0.012262016
0.001,20,0.03,0.028087478,0.073724762
0.002,20,0.03,0.049323459,0.085729335
0.003,20,0.03,0.066987853,0.096495624
0.004,20,0.03,0.08251175,0.106266102
0.005,20,0.03,0.096615018,0.115206868
0.006,20,0.03,0.109696021,0.123428949
0.007,20,0.03,0.121990548,0.13100321
0.008,20,0.03,0.133645181,0.137971246
0.009,20,0.03,0.144754522,0.144353833
0.01,20,0.03,0.155381545,0.150157881
0.02,20,0.03,0.240967937,0.176663978
0.03,20,0.03,0.29911981,0.162047155
0.04,20,0.03,0.341877389,0.136913759
0.05,20,0.03,0.376519629,0.114277843
0.06,20,0.03,0.40642816,0.096235954
0.07,20,0.03,0.433192264,0.082265796
0.08,20,0.03,0.457637145,0.071409357
0.09,20,0.03,0.480238522,0.062819926
0.1,20,0.03,0.501301163,0.055896235
0.11,20,0.03,0.521042382,0.050222239
0.12,20,0.03,0.539629321,0.045492982
0.13,20,0.03,0.557194607,0.041486693
0.14,20,0.03,0.573845327,0.038049856
0.15,20,0.03,0.589670412,0.035073753
0.16,20,0.03,0.60474581,0.032473448
0.17,20,0.03,0.619136943,0.030179853
0.18,20,0.03,0.632899878,0.02813976
0.19,20,0.03,0.646082744,0.026314242
0.2,20,0.03,0.658727583,0.024673326
0.21,20,0.03,0.670871855,0.0231911
0.22,20,0.03,0.682549129,0.02184448
0.23,20,0.03,0.693789263,0.020614427
0.24,20,0.03,0.704618664,0.019486517
0.25,20,0.03,0.715060895,0.018449642
0.001,25,0.03,0.022623641,0.072611661
0.002,25,0.03,0.039712543,0.084489928
0.003,25,0.03,0.053921005,0.095160037
0.004,25,0.03,0.066407666,0.104861938
0.005,25,0.03,0.077755776,0.113761633
0.006,25,0.03,0.088288452,0.121971653
0.007,25,0.03,0.098197213,0.129565261
0.008,25,0.03,0.107601299,0.136586696
0.009,25,0.03,0.116577751,0.143059163
0.01,25,0.03,0.125177836,0.148991267
0.02,25,0.03,0.195120491,0.178427576
0.03,25,0.03,0.243396634,0.166572375
0.04,25,0.03,0.279112493,0.142421985
0.05,25,0.03,0.308127958,0.119882132
0.06,25,0.03,0.333254118,0.101608545
0.07,25,0.03,0.355824289,0.087309779
0.08,25,0.03,0.376530488,0.076144334
0.09,25,0.03,0.395768913,0.067293367
0.1,25,0.03,0.41378889,0.060144224
0.11,25,0.03,0.430764287,0.054276665
0.12,25,0.03,0.446827704,0.049388167
0.13,25,0.03,0.462084931,0.04525117
0.14,25,0.03,0.476621462,0.041700488
0.15,25,0.03,0.490507479,0.038621075
0.16,25,0.03,0.503802336,0.03592928
0.17,25,0.03,0.516557528,0.033557911
0.18,25,0.03,0.528817931,0.031451068
0.19,25,0.03,0.540622321,0.029564689
0.2,25,0.03,0.552004132,0.027866084
0.21,25,0.03,0.562992636,0.026330533
0.22,25,0.03,0.573614044,0.024937183
0.23,25,0.03,0.583892117,0.023667005
0.24,25,0.03,0.593848299,0.022503121
0.25,25,0.03,0.603501724,0.021431859
0.001,30,0.03,0.01893739,0.071789212
0.002,30,0.03,0.033231903,0.083568544
0.003,30,0.03,0.04511263,0.09416015
0.004,30,0.03,0.055552872,0.103801995
0.005,30,0.03,0.065042815,0.11265955
0.006,30,0.03,0.073854212,0.120846087
0.007,30,0.03,0.08214829,0.128436199
0.008,30,0.03,0.090025539,0.135475827
0.009,30,0.03,0.097550943,0.141989799
0.01,30,0.03,0.104767762,0.147988009
0.02,30,0.03,0.163827793,0.179223837
0.03,30,0.03,0.2050173,0.169245262
0.04,30,0.03,0.235615796,0.145822295
0.05,30,0.03,0.260511978,0.12339041
0.06,30,0.03,0.282105697,0.104989692
0.07,30,0.03,0.301543288,0.09048307
0.08,30,0.03,0.319419943,0.07911144
0.09,30,0.03,0.336075406,0.070084906
0.1,30,0.03,0.351721457,0.062785655
0.11,30,0.03,0.366503476,0.056786676
0.12,30,0.03,0.380531193,0.051786615
0.13,30,0.03,0.393892318,0.047558058
0.14,30,0.03,0.406658107,0.043930192
0.15,30,0.03,0.418886859,0.040781318
0.16,30,0.03,0.430627371,0.038025525
0.17,30,0.03,0.441921785,0.035597168
0.18,30,0.03,0.452807122,0.033441478
0.19,30,0.03,0.463315787,0.031512729
0.2,30,0.03,0.473475835,0.029775108
0.21,30,0.03,0.483311582,0.028202005
0.22,30,0.03,0.49284448,0.026773
0.23,30,0.03,0.502093896,0.025470608
0.24,30,0.03,0.511077517,0.024278677
0.25,30,0.03,0.519811411,0.023182632
0.001,35,0.03,0.016283097,0.07116491
0.002,35,0.03,0.028567605,0.082866554
0.003,35,0.03,0.038774763,0.093395403
0.004,35,0.03,0.047743613,0.102987613
0.005,35,0.03,0.055896864,0.111808193
0.006,35,0.03,0.063468978,0.119970757
0.007,35,0.03,0.070599149,0.127550767
0.008,35,0.03,0.077374206,0.134595277
0.009,35,0.03,0.083850339,0.14113027
0.01,35,0.03,0.090064971,0.14716663
0.02,35,0.03,0.141143494,0.179611082
0.03,35,0.03,0.177029192,0.170986909
0.04,35,0.03,0.203766495,0.148120253
0.05,35,0.03,0.225542417,0.125788574
0.06,35,0.03,0.244448227,0.107311964
0.07,35,0.03,0.261488423,0.092664295
0.08,35,0.03,0.277184827,0.081146297
0.09,35,0.03,0.291834851,0.071993659
0.1,35,0.03,0.305622873,0.064587512
0.11,35,0.03,0.318674087,0.058494628
0.12,35,0.03,0.331082083,0.053413141
0.13,35,0.03,0.342921628,0.049116956
0.14,35,0.03,0.354253752,0.045433014
0.15,35,0.03,0.365128434,0.042234909
0.16,35,0.03,0.375587233,0.039433564
0.17,35,0.03,0.385665786,0.036963346
0.18,35,0.03,0.395395437,0.034770837
0.19,35,0.03,0.404803866,0.032810473
0.2,35,0.03,0.413915251,0.031044888
0.21,35,0.03,0.422750536,0.029445451
0.22,35,0.03,0.431328013,0.02799081
0.23,35,0.03,0.439664019,0.026663978
0.24,35,0.03,0.447773459,0.025449865
0.25,35,0.03,0.455670006,0.024334369
0.001,40,0.03,0.014280945,0.070676304
0.002,40,0.03,0.025050548,0.082315953
0.003,40,0.03,0.033996881,0.092794196
0.004,40,0.03,0.041857257,0.102345619
0.005,40,0.03,0.049003227,0.111134902
0.006,40,0.03,0.055640951,0.119275764
0.007,40,0.03,0.061892883,0.126844254
0.008,40,0.03,0.067835454,0.133888228
0.009,40,0.03,0.073518159,0.140434552
0.01,40,0.03,0.078973972,0.146494857
0.02,40,0.03,0.123957745,0.179804776
0.03,40,0.03,0.155735015,0.172203307
0.04,40,0.03,0.179464152,0.149774219
0.05,40,0.03,0.198803344,0.1275303
0.06,40,0.03,0.215604471,0.109004788
0.07,40,0.03,0.23076101,0.094255647
0.08,40,0.03,0.24473735,0.082628587
0.09,40,0.03,0.257797937,0.073380916
0.1,40,0.03,0.270106151,0.065894795
0.11,40,0.03,0.281772066,0.059731911
0.12,40,0.03,0.292877307,0.054589034
0.13,40,0.03,0.303486955,0.050241204
0.14,40,0.03,0.313654331,0.04651466
0.15,40,0.03,0.323423207,0.04327989
0.16,40,0.03,0.332829851,0.040444877
0.17,40,0.03,0.341905164,0.037943187
0.18,40,0.03,0.350676269,0.03572226
0.19,40,0.03,0.359167242,0.03373725
0.2,40,0.03,0.36739928,0.031950274
0.21,40,0.03,0.375390815,0.030331325
0.22,40,0.03,0.383157874,0.02885787
0.23,40,0.03,0.390714635,0.027512704
0.24,40,0.03,0.398073951,0.026281325
0.25,40,0.03,0.405247645,0.025150323
0.001,45,0.03,0.012717006,0.070286399
0.002,45,0.03,0.022304063,0.081875856
0.003,45,0.03,0.030266528,0.092312748
0.004,45,0.03,0.037261979,0.101830589
0.005,45,0.03,0.043621844,0.11059345
0.006,45,0.03,0.049530076,0.118715297
0.007,45,0.03,0.055095979,0.126272543
0.008,45,0.03,0.06038781,0.133313697
0.009,45,0.03,0.065449791,0.139866191
0.01,45,0.03,0.070311393,0.145942288
0.02,45,0.03,0.110492793,0.179899399
0.03,45,0.03,0.138998162,0.173095402
0.04,45,0.03,0.160321327,0.151018221
0.05,45,0.03,0.177708448,0.128850193
0.06,45,0.03,0.192820586,0.110291875
0.07,45,0.03,0.206462071,0.095467118
0.08,45,0.03,0.21905116,0.083756434
0.09,45,0.03,0.230825898,0.074435078
0.1,45,0.03,0.241933019,0.066887156
0.11,45,0.03,0.252470825,0.060670343
0.12,45,0.03,0.262511718,0.055479709
0.13,45,0.03,0.272113293,0.051091161
0.14,45,0.03,0.281322859,0.047330948
0.15,45,0.03,0.290179356,0.044067568
0.16,45,0.03,0.298715001,0.041206608
0.17,45,0.03,0.306957097,0.038680544
0.18,45,0.03,0.314929532,0.036437205
0.19,45,0.03,0.322653564,0.034432483
0.2,45,0.03,0.330148028,0.032628497
0.21,45,0.03,0.337429378,0.030994373
0.22,45,0.03,0.344511912,0.029506559
0.23,45,0.03,0.351408192,0.028147323
0.24,45,0.03,0.358129526,0.026902366
0.25,45,0.03,0.364686301,0.025758832
0.001,50,0.03,0.01146167,0.069968048
0.002,50,0.03,0.020100042,0.081516237
0.003,50,0.03,0.02727344,0.091918929
0.004,50,0.03,0.033575266,0.101408709
0.005,50,0.03,0.039304645,0.110149331
0.006,50,0.03,0.044627636,0.118254695
0.007,50,0.03,0.049642945,0.125801615
0.008,50,0.03,0.054412229,0.132839014
0.009,50,0.03,0.058975456,0.139394922
0.01,50,0.03,0.063359266,0.145481983
0.02,50,0.03,0.099660771,0.179941163
0.03,50,0.03,0.125500827,0.173776602
0.04,50,0.03,0.14485749,0.151988465
0.05,50,0.03,0.160647261,0.129885964
0.06,50,0.03,0.174375682,0.111304503
0.07,50,0.03,0.186773983,0.096421097
0.08,50,0.03,0.198222571,0.08464396
0.09,50,0.03,0.208937869,0.075263423
0.1,50,0.03,0.219053074,0.067665985
0.11,50,0.03,0.228657034,0.061406175
0.12,50,0.03,0.237814825,0.056177337
0.13,50,0.03,0.246578083,0.051755913
0.14,50,0.03,0.254989301,0.047968445
0.15,50,0.03,0.263083548,0.044682142
0.16,50,0.03,0.270889819,0.041800643
0.17,50,0.03,0.278432592,0.039255289
0.18,50,0.03,0.285733209,0.036994005
0.19,50,0.03,0.292810679,0.034973293
0.2,50,0.03,0.299681922,0.033155466
0.21,50,0.03,0.306361793,0.031509189
0.22,50,0.03,0.312863209,0.030010079
0.23,50,0.03,0.319197474,0.028639825
0.24,50,0.03,0.325374697,0.027384088
0.25,50,0.03,0.331404134,0.026230378
0.001,55,0.03,0.010431919,0.069702662
0.002,55,0.03,0.018292423,0.081216183
0.003,55,0.03,0.024818985,0.091590137
0.004,55,0.03,0.030552247,0.101056111
0.005,55,0.03,0.035764772,0.10977768
0.006,55,0.03,0.0406079,0.117868711
0.007,55,0.03,0.045171609,0.125406279
0.008,55,0.03,0.049512126,0.132439687
0.009,55,0.03,0.053665904,0.138997288
0.01,55,0.03,0.057657256,0.145092281
0.02,55,0.03,0.090759794,0.179951824
0.03,55,0.03,0.114387769,0.174311342
0.04,55,0.03,0.132107915,0.152764873
0.05,55,0.03,0.146567212,0.130719396
0.06,55,0.03,0.159142098,0.112121238
0.07,55,0.03,0.170502804,0.09719128
0.08,55,0.03,0.180998139,0.085360284
0.09,55,0.03,0.190826494,0.075931341
0.1,55,0.03,0.20010983,0.068293452
0.11,55,0.03,0.208929229,0.061998662
0.12,55,0.03,0.217343801,0.056738658
0.13,55,0.03,0.225400336,0.052290211
0.14,55,0.03,0.233137388,0.048480248
0.15,55,0.03,0.240586849,0.045175139
0.16,55,0.03,0.247775089,0.042276972
0.17,55,0.03,0.254724304,0.039716003
0.18,55,0.03,0.261453784,0.037440073
0.19,55,0.03,0.267980706,0.035406141
0.2,55,0.03,0.274320416,0.03357683
0.21,55,0.03,0.280486443,0.031920549
0.22,55,0.03,0.286490572,0.030412283
0.23,55,0.03,0.292343092,0.029033185
0.24,55,0.03,0.298053155,0.027768734
0.25,55,0.03,0.303629109,0.026606671
0.001,60,0.03,0.009571895,0.069478903
0.002,60,0.03,0.016782993,0.080962885
0.003,60,0.03,0.022769662,0.091312377
0.004,60,0.03,0.028028397,0.100758031
0.005,60,0.03,0.03280953,0.109463218
0.006,60,0.03,0.037252078,0.117541766
0.007,60,0.03,0.041438709,0.125070923
0.008,60,0.03,0.045421096,0.132100334
0.009,60,0.03,0.04923275,0.13865873
0.01,60,0.03,0.052896026,0.144759553
0.02,60,0.03,0.08331625,0.17994558
0.03,60,0.03,0.105079413,0.174742267
0.04,60,0.03,0.121416885,0.153400634
0.05,60,0.03,0.134751315,0.131404988
0.06,60,0.03,0.146350291,0.112794412
0.07,60,0.03,0.156832391,0.097826628
0.08,60,0.03,0.166519651,0.085951125
0.09,60,0.03,0.175595196,0.076481822
0.1,60,0.03,0.184171509,0.068810212
0.11,60,0.03,0.192323171,0.062486366
0.12,60,0.03,0.20010434,0.057200447
0.13,60,0.03,0.207557788,0.052729365
0.14,60,0.03,0.214718789,0.048900463
0.15,60,0.03,0.221616581,0.04557956
0.16,60,0.03,0.228275352,0.042667505
0.17,60,0.03,0.234715415,0.040093586
0.18,60,0.03,0.240954368,0.037805423
0.19,60,0.03,0.247007876,0.035760348
0.2,60,0.03,0.252889966,0.033921295
0.21,60,0.03,0.258613051,0.032256549
0.22,60,0.03,0.26418797,0.030740649
0.23,60,0.03,0.269624171,0.029354258
0.24,60,0.03,0.274930023,0.028082624
0.25,60,0.03,0.280113129,0.026913598
0.001,65,0.03,0.008842841,0.069287652
0.002,65,0.03,0.015503614,0.080746548
0.003,65,0.03,0.021032849,0.091074878
0.004,65,0.03,0.025889562,0.100503048
0.005,65,0.03,0.030305204,0.109194027
0.006,65,0.03,0.034408323,0.117261624
0.007,65,0.03,0.038275377,0.124783303
0.008,65,0.03,0.041954166,0.131808895
0.009,65,0.03,0.045475699,0.138367458
0.01,65,0.03,0.048860664,0.144472727
0.02,65,0.03,0.076999736,0.17992996
0.03,65,0.03,0.097169879,0.175096758
0.04,65,0.03,0.112323998,0.153930812
0.05,65,0.03,0.12469519,0.131978795
0.06,65,0.03,0.135458061,0.113358617
0.07,65,0.03,0.145186892,0.098359333
0.08,65,0.03,0.154180747,0.086446198
0.09,65,0.03,0.162609668,0.076942546
0.1,65,0.03,0.170578025,0.069242241
0.11,65,0.03,0.178154875,0.062893795
0.12,65,0.03,0.185390198,0.057585965
0.13,65,0.03,0.192323381,0.053095718
0.14,65,0.03,0.198986925,0.04925077
0.15,65,0.03,0.20540782,0.045916571
0.16,65,0.03,0.211608406,0.042992951
0.17,65,0.03,0.217607412,0.040408307
0.18,65,0.03,0.223421022,0.038110005
0.19,65,0.03,0.229063631,0.036055625
0.2,65,0.03,0.234548149,0.034208391
0.21,65,0.03,0.239886042,0.032536569
0.22,65,0.03,0.24508734,0.031014341
0.23,65,0.03,0.250160782,0.029621928
0.24,65,0.03,0.255114087,0.028344366
0.25,65,0.03,0.259954238,0.027169521
0.001,70,0.03,0.008216964,0.069122445
0.002,70,0.03,0.014405431,0.080559549
0.003,70,0.03,0.01954215,0.0908696
0.004,70,0.03,0.024053915,0.10028255
0.005,70,0.03,0.028155946,0.108961026
0.006,70,0.03,0.031967789,0.117018995
0.007,70,0.03,0.035560558,0.124533951
0.008,70,0.03,0.03897872,0.131555975
0.009,70,0.03,0.042251128,0.138114309
0.01,70,0.03,0.045397036,0.144222969
0.02,70,0.03,0.071572575,0.179908797
0.03,70,0.03,0.090366311,0.175392652
0.04,70,0.03,0.104496365,0.154378776
0.05,70,0.03,0.116033601,0.132465148
0.06,70,0.03,0.12607229,0.113837437
0.07,70,0.03,0.135148313,0.098811761
0.08,70,0.03,0.143540815,0.086866819
0.09,70,0.03,0.151408487,0.077334016
0.1,70,0.03,0.158848688,0.069609409
0.11,70,0.03,0.165925717,0.063240176
0.12,70,0.03,0.172685982,0.057913813
0.13,70,0.03,0.179165982,0.05340724
0.14,70,0.03,0.185395846,0.049548518
0.15,70,0.03,0.191400637,0.046202876
0.16,70,0.03,0.197201112,0.04326933
0.17,70,0.03,0.202814651,0.040675491
0.18,70,0.03,0.208256237,0.038368447
0.19,70,0.03,0.213539182,0.036305969
0.2,70,0.03,0.218675442,0.03445154
0.21,70,0.03,0.223675665,0.032773472
0.22,70,0.03,0.228549184,0.031245687
0.23,70,0.03,0.233304132,0.029848048
0.24,70,0.03,0.237947672,0.028565344
0.25,70,0.03,0.242486264,0.027385436
0.001,5,0.04,0.100016767,0.08093984
0.002,5,0.04,0.175757441,0.092503723
0.003,5,0.04,0.238312596,0.102167665
0.004,5,0.04,0.292474297,0.11014399
0.005,5,0.04,0.340623874,0.116556745
0.006,5,0.04,0.384068247,0.121483798
0.007,5,0.04,0.423587864,0.124987152
0.008,5,0.04,0.459690744,0.127133651
0.009,5,0.04,0.492740396,0.128006929
0.01,5,0.04,0.523023153,0.127711686
0.02,5,0.04,0.719021429,0.089277083
0.03,5,0.04,0.813627141,0.045548566
0.04,5,0.04,0.867586674,0.018946835
0.05,5,0.04,0.900699417,0.006872581
0.06,5,0.04,0.921732101,0.002565613
0.07,5,0.04,0.935648114,0.001077802
0.08,5,0.04,0.945315842,0.000511942
0.09,5,0.04,0.952352114,0.000269521
0.1,5,0.04,0.957679601,0.000154026
0.11,5,0.04,0.961845568,9.39553E-05
0.12,5,0.04,0.965189775,6.0397E-05
0.13,5,0.04,0.967932557,4.05241E-05
0.14,5,0.04,0.970222438,2.81717E-05
0.15,5,0.04,0.972162953,2.01781E-05
0.16,5,0.04,0.973828389,1.48242E-05
0.17,5,0.04,0.975273397,1.11314E-05
0.18,5,0.04,0.97653906,8.51791E-06
0.19,5,0.04,0.977656852,6.62814E-06
0.2,5,0.04,0.978651286,5.23376E-06
0.21,5,0.04,0.97954174,4.18769E-06
0.22,5,0.04,0.980343734,3.39066E-06
0.23,5,0.04,0.981069841,2.77351E-06
0.24,5,0.04,0.98173036,2.29086E-06
0.25,5,0.04,0.982333804,1.90771E-06
0.001,10,0.04,0.054768805,0.089406458
0.002,10,0.04,0.096464667,0.103657371
0.003,10,0.04,0.131285037,0.116347216
0.004,10,0.04,0.16192675,0.127762269
0.005,10,0.04,0.189740144,0.138088264
0.006,10,0.04,0.215467342,0.147440408
0.007,10,0.04,0.239543634,0.15588453
0.008,10,0.04,0.26223694,0.163453267
0.009,10,0.04,0.283718822,0.170158762
0.01,10,0.04,0.30410353,0.176003102
0.02,10,0.04,0.459682537,0.190943725
0.03,10,0.04,0.555114858,0.161540357
0.04,10,0.04,0.620801555,0.127981793
0.05,10,0.04,0.671623988,0.100890577
0.06,10,0.04,0.713702858,0.080407022
0.07,10,0.04,0.749767007,0.064909392
0.08,10,0.04,0.781215346,0.05295798
0.09,10,0.04,0.808878399,0.04352207
0.1,10,0.04,0.833315567,0.035894097
0.11,10,0.04,0.854935326,0.029603196
0.12,10,0.04,0.874050989,0.024322805
0.13,10,0.04,0.890910215,0.019823257
0.14,10,0.04,0.905711833,0.015942918
0.15,10,0.04,0.918617651,0.012563646
0.16,10,0.04,0.92976147,0.0096031
0.17,10,0.04,0.939257591,0.007011383
0.18,10,0.04,0.947212052,0.004780902
0.19,10,0.04,0.953740022,0.002973034
0.2,10,0.04,0.9589892,0.001694596
0.21,10,0.04,0.963153647,0.00093567
0.22,10,0.04,0.966454825,0.000531194
0.23,10,0.04,0.969100318,0.000318361
0.24,10,0.04,0.971256609,0.000201875
0.25,10,0.04,0.973046257,0.000134545
0.001,15,0.04,0.037455727,0.088135239
0.002,15,0.04,0.065931287,0.102431272
0.003,15,0.04,0.089717852,0.115254851
0.004,15,0.04,0.110686486,0.126898306
0.005,15,0.04,0.129777145,0.137559793
0.006,15,0.04,0.147508804,0.14737001
0.007,15,0.04,0.164187502,0.156410576
0.008,15,0.04,0.180002415,0.164727542
0.009,15,0.04,0.195074637,0.172341998
0.01,15,0.04,0.209483892,0.179258762
0.02,15,0.04,0.32435097,0.210140259
0.03,15,0.04,0.399635268,0.191608013
0.04,15,0.04,0.452884138,0.160897331
0.05,15,0.04,0.494848937,0.133359973
0.06,15,0.04,0.530418329,0.111458197
0.07,15,0.04,0.561824418,0.094486892
0.08,15,0.04,0.590191159,0.081249789
0.09,15,0.04,0.616150166,0.070756236
0.1,15,0.04,0.640099266,0.062291078
0.11,15,0.04,0.662318777,0.055333852
0.12,15,0.04,0.683022076,0.04951503
0.13,15,0.04,0.702377698,0.044580833
0.14,15,0.04,0.720522479,0.040347771
0.15,15,0.04,0.737570889,0.036674067
0.16,15,0.04,0.753620298,0.033452691
0.17,15,0.04,0.768753632,0.030605806
0.18,15,0.04,0.783041848,0.028073274
0.19,15,0.04,0.796546654,0.025804453
0.2,15,0.04,0.809322445,0.023757771
0.21,15,0.04,0.821417164,0.021901594
0.22,15,0.04,0.832872937,0.02021125
0.23,15,0.04,0.843727074,0.018665031
0.24,15,0.04,0.854013068,0.017243471
0.25,15,0.04,0.863761104,0.015930823
0.001,20,0.04,0.02842331,0.086562908
0.002,20,0.04,0.050003957,0.100708752
0.003,20,0.04,0.068022472,0.113430862
0.004,20,0.04,0.083910473,0.125019308
0.005,20,0.04,0.098388211,0.135674462
0.006,20,0.04,0.111854237,0.145531868
0.007,20,0.04,0.124544272,0.154679389
0.008,20,0.04,0.136604525,0.163169674
0.009,20,0.04,0.148128861,0.171029599
0.01,20,0.04,0.159179125,0.178268147
0.02,20,0.04,0.248959113,0.215685472
0.03,20,0.04,0.309695736,0.20313345
0.04,20,0.04,0.353193316,0.17454489
0.05,20,0.04,0.387638101,0.147182016
0.06,20,0.04,0.416995129,0.124737649
0.07,20,0.04,0.443111608,0.107047787
0.08,20,0.04,0.466918248,0.093138058
0.09,20,0.04,0.488931329,0.082058051
0.1,20,0.04,0.509465787,0.073093473
0.11,20,0.04,0.528734681,0.065726973
0.12,20,0.04,0.546897057,0.059573698
0.13,20,0.04,0.56407887,0.054354492
0.14,20,0.04,0.580382024,0.049874327
0.15,20,0.04,0.595890367,0.045991907
0.16,20,0.04,0.610674868,0.04259604
0.17,20,0.04,0.624797063,0.039597707
0.18,20,0.04,0.638310536,0.036929322
0.19,20,0.04,0.651261619,0.03454098
0.2,20,0.04,0.663690456,0.032393245
0.21,20,0.04,0.675632437,0.030451779
0.22,20,0.04,0.687119359,0.028686573
0.23,20,0.04,0.698179931,0.027073418
0.24,20,0.04,0.708839851,0.025593996
0.25,20,0.04,0.71912198,0.02423378
0.001,25,0.04,0.022892006,0.085335141
0.002,25,0.04,0.040256309,0.099339361
0.003,25,0.04,0.054747727,0.111951136
0.004,25,0.04,0.067525359,0.123457629
0.005,25,0.04,0.079172823,0.134059194
0.006,25,0.04,0.090013471,0.143893233
0.007,25,0.04,0.100238884,0.153050659
0.008,25,0.04,0.109968152,0.161587636
0.009,25,0.04,0.119277909,0.169534544
0.01,25,0.04,0.128218732,0.176903261
0.02,25,0.04,0.201628212,0.217730869
0.03,25,0.04,0.252221464,0.208868782
0.04,25,0.04,0.288730531,0.181789116
0.05,25,0.04,0.317702253,0.15467963
0.06,25,0.04,0.34244573,0.13199244
0.07,25,0.04,0.364525722,0.113899176
0.08,25,0.04,0.384732511,0.099586156
0.09,25,0.04,0.403502777,0.088149735
0.1,25,0.04,0.421099501,0.078874312
0.11,25,0.04,0.437696246,0.07124233
0.12,25,0.04,0.453419641,0.064869528
0.13,25,0.04,0.468369531,0.05946714
0.14,25,0.04,0.482627256,0.054826708
0.15,25,0.04,0.496259639,0.050800939
0.16,25,0.04,0.509322453,0.047279865
0.17,25,0.04,0.521863634,0.044174672
0.18,25,0.04,0.533925335,0.041412979
0.19,25,0.04,0.545544696,0.038938892
0.2,25,0.04,0.556754105,0.03671083
0.21,25,0.04,0.56758171,0.034696374
0.22,25,0.04,0.578052313,0.03286751
0.23,25,0.04,0.588188267,0.031198922
0.24,25,0.04,0.598009984,0.029668816
0.25,25,0.04,0.607536047,0.028259985
0.001,30,0.04,0.019160403,0.084410958
0.002,30,0.04,0.033683756,0.098301787
0.003,30,0.04,0.045799593,0.110821726
0.004,30,0.04,0.056481612,0.122255497
0.005,30,0.04,0.066220333,0.132802846
0.006,30,0.04,0.075287747,0.142602085
0.007,30,0.04,0.083845189,0.151745781
0.008,30,0.04,0.091993094,0.160292243
0.009,30,0.04,0.099796202,0.168274147
0.01,30,0.04,0.107297304,0.175705351
0.02,30,0.04,0.169296536,0.218587562
0.03,30,0.04,0.212550338,0.212207339
0.04,30,0.04,0.243925422,0.186232806
0.05,30,0.04,0.268852922,0.15935857
0.06,30,0.04,0.290163119,0.13655009
0.07,30,0.04,0.309209452,0.118206526
0.08,30,0.04,0.32667706,0.1036285
0.09,30,0.04,0.342943959,0.091954804
0.1,30,0.04,0.358236452,0.08247181
0.11,30,0.04,0.372701784,0.074659056
0.12,30,0.04,0.386445437,0.06813356
0.13,30,0.04,0.399549863,0.06260432
0.14,30,0.04,0.412082513,0.05785516
0.15,30,0.04,0.424099086,0.053731804
0.16,30,0.04,0.435645845,0.050122536
0.17,30,0.04,0.446762091,0.046939916
0.18,30,0.04,0.457482233,0.044111482
0.19,30,0.04,0.46783687,0.041578336
0.2,30,0.04,0.477853078,0.03929529
0.21,30,0.04,0.487554519,0.037228473
0.22,30,0.04,0.496961831,0.035350929
0.23,30,0.04,0.5060933,0.033638943
0.24,30,0.04,0.514965514,0.032070827
0.25,30,0.04,0.523593731,0.030627648
0.001,35,0.04,0.016473684,0.083702458
0.002,35,0.04,0.028953746,0.097503383
0.003,35,0.04,0.039361805,0.109949186
0.004,35,0.04,0.048537256,0.121322598
0.005,35,0.04,0.056903106,0.131822698
0.006,35,0.04,0.064694041,0.141588164
0.007,35,0.04,0.072049381,0.150712664
0.008,35,0.04,0.079055949,0.15925592
0.009,35,0.04,0.085769777,0.167252154
0.01,35,0.04,0.092227948,0.174716686
0.02,35,0.04,0.145851551,0.218958813
0.03,35,0.04,0.18358574,0.214356208
0.04,35,0.04,0.211060908,0.189220549
0.05,35,0.04,0.232907045,0.162548906
0.06,35,0.04,0.251592802,0.139675763
0.07,35,0.04,0.268308982,0.121164912
0.08,35,0.04,0.283659606,0.106400866
0.09,35,0.04,0.297977713,0.094558165
0.1,35,0.04,0.311462051,0.084927337
0.11,35,0.04,0.324240823,0.076984868
0.12,35,0.04,0.336404639,0.070348067
0.13,35,0.04,0.348023673,0.064725892
0.14,35,0.04,0.35915539,0.059898165
0.15,35,0.04,0.369847508,0.055705193
0.16,35,0.04,0.380139679,0.052032409
0.17,35,0.04,0.390065332,0.048792677
0.18,35,0.04,0.399653501,0.045914416
0.19,35,0.04,0.408930039,0.043337929
0.2,35,0.04,0.417918049,0.041015684
0.21,35,0.04,0.426637931,0.038911698
0.22,35,0.04,0.435107498,0.036998516
0.23,35,0.04,0.443342375,0.035253345
0.24,35,0.04,0.451356551,0.033655535
0.25,35,0.04,0.45916284,0.032186169
0.001,40,0.04,0.014447251,0.083144659
0.002,40,0.04,0.025387485,0.096873411
0.003,40,0.04,0.034509107,0.109259166
0.004,40,0.04,0.042549745,0.120582866
0.005,40,0.04,0.049881217,0.131043087
0.006,40,0.04,0.056709893,0.140778647
0.007,40,0.04,0.063158356,0.149883914
0.008,40,0.04,0.069303058,0.158419632
0.009,40,0.04,0.075193385,0.166421133
0.01,40,0.04,0.080862054,0.173904854
0.02,40,0.04,0.128087359,0.219109608
0.03,40,0.04,0.161532614,0.215841308
0.04,40,0.04,0.185955423,0.19136189
0.05,40,0.04,0.205385435,0.164861197
0.06,40,0.04,0.222009735,0.141951547
0.07,40,0.04,0.23689061,0.123321863
0.08,40,0.04,0.250567807,0.108420398
0.09,40,0.04,0.263338824,0.096451242
0.1,40,0.04,0.275380869,0.086709924
0.11,40,0.04,0.286807614,0.078670378
0.12,40,0.04,0.297698603,0.071949498
0.13,40,0.04,0.308114919,0.066256648
0.14,40,0.04,0.318106545,0.061369572
0.15,40,0.04,0.327715174,0.057124669
0.16,40,0.04,0.336975534,0.053404515
0.17,40,0.04,0.345916786,0.050121523
0.18,40,0.04,0.354564073,0.047204888
0.19,40,0.04,0.362939723,0.044595017
0.2,40,0.04,0.3710638,0.042243169
0.21,40,0.04,0.378954177,0.040111648
0.22,40,0.04,0.386626547,0.038171972
0.23,40,0.04,0.394094633,0.036401521
0.24,40,0.04,0.401370592,0.034780452
0.25,40,0.04,0.408465467,0.03329041
0.001,45,0.04,0.012864475,0.082697659
0.002,45,0.04,0.02260283,0.096367781
0.003,45,0.04,0.030720717,0.108704335
0.004,45,0.04,0.037875996,0.11998697
0.005,45,0.04,0.044400342,0.130413676
0.006,45,0.04,0.050477899,0.140123382
0.007,45,0.04,0.056218098,0.149210911
0.008,45,0.04,0.061689231,0.157737802
0.009,45,0.04,0.066935445,0.165740173
0.01,45,0.04,0.07198601,0.173235367
0.02,45,0.04,0.114168756,0.21915324
0.03,45,0.04,0.144190955,0.216920741
0.04,45,0.04,0.166164234,0.192967053
0.05,45,0.04,0.183652881,0.166610774
0.06,45,0.04,0.198619063,0.143680436
0.07,45,0.04,0.212021167,0.124963126
0.08,45,0.04,0.224346857,0.109956915
0.09,45,0.04,0.235864872,0.097890204
0.1,45,0.04,0.246735101,0.088063594
0.11,45,0.04,0.257059717,0.079949013
0.12,45,0.04,0.266909686,0.0731626
0.13,45,0.04,0.276339106,0.067414196
0.14,45,0.04,0.28539217,0.0624805
0.15,45,0.04,0.294105864,0.058195174
0.16,45,0.04,0.302511091,0.054438331
0.17,45,0.04,0.310633748,0.051121585
0.18,45,0.04,0.318496037,0.048174619
0.19,45,0.04,0.326117595,0.045538222
0.2,45,0.04,0.333516107,0.043163087
0.21,45,0.04,0.340707437,0.041010278
0.22,45,0.04,0.3477056,0.039050272
0.23,45,0.04,0.354522857,0.037260185
0.24,45,0.04,0.361170004,0.035620647
0.25,45,0.04,0.367656762,0.034113894
0.001,50,0.04,0.011594112,0.082331754
0.002,50,0.04,0.020368359,0.09595348
0.003,50,0.04,0.027681332,0.108249286
0.004,50,0.04,0.034126687,0.119497617
0.005,50,0.04,0.040003774,0.129896045
0.006,50,0.04,0.045478833,0.13958352
0.007,50,0.04,0.05065069,0.148655234
0.008,50,0.04,0.055581046,0.157173278
0.009,50,0.04,0.060309815,0.165174491
0.01,50,0.04,0.064863474,0.172676792
0.02,50,0.04,0.102971909,0.219143629
0.03,50,0.04,0.130201263,0.217738558
0.04,50,0.04,0.150167326,0.194215276
0.05,50,0.04,0.166063725,0.167981769
0.06,50,0.04,0.179669071,0.145039523
0.07,50,0.04,0.191856131,0.126254878
0.08,50,0.04,0.203069545,0.111165869
0.09,50,0.04,0.213554321,0.099021213
0.1,50,0.04,0.223456112,0.089126419
0.11,50,0.04,0.23286774,0.080951908
0.12,50,0.04,0.241853308,0.074112949
0.13,50,0.04,0.250461378,0.068319747
0.14,50,0.04,0.258731536,0.063348479
0.15,50,0.04,0.266696997,0.059030837
0.16,50,0.04,0.274385591,0.055244846
0.17,50,0.04,0.281820629,0.051901205
0.18,50,0.04,0.28902201,0.048929849
0.19,50,0.04,0.296007259,0.046271975
0.2,50,0.04,0.302792166,0.043878053
0.21,50,0.04,0.309390966,0.041708306
0.22,50,0.04,0.315816308,0.039732289
0.23,50,0.04,0.322079282,0.037926686
0.24,50,0.04,0.328189623,0.036272333
0.25,50,0.04,0.334156031,0.034751939
0.001,55,0.04,0.010552099,0.082026077
0.002,55,0.04,0.018535893,0.095607043
0.003,55,0.04,0.025189099,0.107868514
0.004,55,0.04,0.031052592,0.119087777
0.005,55,0.04,0.03639914,0.129462062
0.006,55,0.04,0.041380252,0.139130291
0.007,55,0.04,0.046086022,0.148187981
0.008,55,0.04,0.050572723,0.156697627
0.009,55,0.04,0.054876773,0.164696594
0.01,55,0.04,0.059022346,0.172203423
0.02,55,0.04,0.093771398,0.219105148
0.03,55,0.04,0.118680048,0.218376123
0.04,55,0.04,0.136972357,0.19521167
0.05,55,0.04,0.151540104,0.169083675
0.06,55,0.04,0.164009395,0.146135018
0.07,55,0.04,0.175181271,0.127297372
0.08,55,0.04,0.185464265,0.112141531
0.09,55,0.04,0.19508348,0.099933378
0.1,55,0.04,0.204172653,0.089982977
0.11,55,0.04,0.212816847,0.081759636
0.12,55,0.04,0.221074537,0.074877721
0.13,55,0.04,0.228989789,0.069047712
0.14,55,0.04,0.236598447,0.064045542
0.15,55,0.04,0.243930634,0.059701456
0.16,55,0.04,0.251011663,0.055891766
0.17,55,0.04,0.257862736,0.052526237
0.18,55,0.04,0.264501895,0.049534878
0.19,55,0.04,0.27094497,0.046859268
0.2,55,0.04,0.277206211,0.044449848
0.21,55,0.04,0.283298512,0.04226626
0.22,55,0.04,0.289233387,0.040277286
0.23,55,0.04,0.295020962,0.038459154
0.24,55,0.04,0.300670112,0.036792717
0.25,55,0.04,0.306188726,0.035261045
0.001,60,0.04,0.009681881,0.081767766
0.002,60,0.04,0.017005809,0.095314069
0.003,60,0.04,0.023108375,0.107546333
0.004,60,0.04,0.028486288,0.118740764
0.005,60,0.04,0.03339007,0.129094336
0.006,60,0.04,0.037958894,0.138745856
0.007,60,0.04,0.042275541,0.147791113
0.008,60,0.04,0.046391732,0.156292999
0.009,60,0.04,0.050340952,0.164289309
0.01,60,0.04,0.054145439,0.171798965
0.02,60,0.04,0.086077661,0.219053373
0.03,60,0.04,0.109028093,0.218886797
0.04,60,0.04,0.12590398,0.196025828
0.05,60,0.04,0.139346727,0.169989191
0.06,60,0.04,0.150853794,0.147037411
0.07,60,0.04,0.161165304,0.128157016
0.08,60,0.04,0.170659063,0.112946132
0.09,60,0.04,0.179543242,0.100685217
0.1,60,0.04,0.187941464,0.090688549
0.11,60,0.04,0.195932238,0.082424601
0.12,60,0.04,0.203569339,0.075506889
0.13,60,0.04,0.21089311,0.069646058
0.14,60,0.04,0.21793629,0.064617943
0.15,60,0.04,0.224726433,0.060251737
0.16,60,0.04,0.231286744,0.0564223
0.17,60,0.04,0.237636674,0.053038551
0.18,60,0.04,0.243792733,0.050030437
0.19,60,0.04,0.249769357,0.047339867
0.2,60,0.04,0.255579529,0.044917367
0.21,60,0.04,0.26123502,0.042722164
0.22,60,0.04,0.266746388,0.040722426
0.23,60,0.04,0.272122949,0.038893936
0.24,60,0.04,0.277372863,0.037217463
0.25,60,0.04,0.282503356,0.035676331
0.001,65,0.04,0.008944223,0.081546893
0.002,65,0.04,0.015708996,0.09506359
0.003,65,0.04,0.021345056,0.107270554
0.004,65,0.04,0.026311615,0.118443506
0.005,65,0.04,0.030840304,0.128779103
0.006,65,0.04,0.035059817,0.138416077
0.007,65,0.04,0.039046718,0.147450395
0.008,65,0.04,0.042848855,0.155945162
0.009,65,0.04,0.04649722,0.163938615
0.01,65,0.04,0.050012401,0.171450085
0.02,65,0.04,0.079549104,0.218996012
0.03,65,0.04,0.100825466,0.219304577
0.04,65,0.04,0.116487499,0.196703436
0.05,65,0.04,0.1289657,0.170746343
0.06,65,0.04,0.139647601,0.147793338
0.07,65,0.04,0.149220951,0.128877558
0.08,65,0.04,0.158037106,0.113620321
0.09,65,0.04,0.16628966,0.101314651
0.1,65,0.04,0.174093541,0.091278715
0.11,65,0.04,0.181521651,0.082980392
0.12,65,0.04,0.188623774,0.07603238
0.13,65,0.04,0.195437113,0.070145428
0.14,65,0.04,0.201991798,0.065095355
0.15,65,0.04,0.208313209,0.060710528
0.16,65,0.04,0.214422766,0.0568646
0.17,65,0.04,0.220338436,0.053465675
0.18,65,0.04,0.226075443,0.050443584
0.19,65,0.04,0.231647059,0.047740479
0.2,65,0.04,0.237065204,0.045307005
0.21,65,0.04,0.242340701,0.043102108
0.22,65,0.04,0.247483294,0.041093454
0.23,65,0.04,0.252501606,0.039256386
0.24,65,0.04,0.257403193,0.037571568
0.25,65,0.04,0.262194729,0.036022479
0.001,70,0.04,0.008310986,0.081355799
0.002,70,0.04,0.014595901,0.094846812
0.003,70,0.04,0.019831685,0.10703184
0.004,70,0.04,0.024445317,0.118186197
0.005,70,0.04,0.028652183,0.128506009
0.006,70,0.04,0.032571967,0.138130192
0.007,70,0.04,0.036275882,0.147154691
0.008,70,0.04,0.039808446,0.155643001
0.009,70,0.04,0.043198501,0.163633599
0.01,70,0.04,0.046465212,0.171146126
0.02,70,0.04,0.073939985,0.218936705
0.03,70,0.04,0.093769018,0.219651588
0.04,70,0.04,0.108379414,0.197275094
0.05,70,0.04,0.120021653,0.171387752
0.06,70,0.04,0.129988269,0.148434762
0.07,70,0.04,0.138921523,0.129489521
0.08,70,0.04,0.14714976,0.114193141
0.09,70,0.04,0.154853899,0.101849547
0.1,70,0.04,0.162141312,0.091780329
0.11,70,0.04,0.169080044,0.083452879
0.12,70,0.04,0.175716449,0.076479146
0.13,70,0.04,0.182085051,0.07056992
0.14,70,0.04,0.188213754,0.065501039
0.15,70,0.04,0.194126079,0.061100242
0.16,70,0.04,0.199841913,0.057240178
0.17,70,0.04,0.205377955,0.053828227
0.18,70,0.04,0.210748332,0.050794067
0.19,70,0.04,0.215965329,0.048080064
0.2,70,0.04,0.221039962,0.045636981
0.21,70,0.04,0.225982246,0.043423606
0.22,70,0.04,0.230801221,0.041407191
0.23,70,0.04,0.235504911,0.039562698
0.24,70,0.04,0.240100354,0.037870642
0.25,70,0.04,0.244593751,0.036314608
0.001,5,0.05,0.100711101,0.088443915
0.002,5,0.05,0.177146998,0.101141173
0.003,5,0.05,0.240393756,0.111792785
0.004,5,0.05,0.295237019,0.120630447
0.005,5,0.05,0.344049809,0.127786876
0.006,5,0.05,0.38812918,0.133341771
0.007,5,0.05,0.428244818,0.137355337
0.008,5,0.05,0.46489402,0.139891766
0.009,5,0.05,0.498430655,0.141033365
0.01,5,0.05,0.529133431,0.140886307
0.02,5,0.05,0.725732664,0.099444227
0.03,5,0.05,0.817977757,0.051139309
0.04,5,0.05,0.869839361,0.021592528
0.05,5,0.05,0.90173191,0.008026783
0.06,5,0.05,0.922193235,0.003067187
0.07,5,0.05,0.935864227,0.001309028
0.08,5,0.05,0.945425266,0.000627755
0.09,5,0.05,0.952411996,0.000332416
0.1,5,0.05,0.957714682,0.000190663
0.11,5,0.05,0.961867328,0.000116581
0.12,5,0.05,0.965203931,7.50644E-05
0.13,5,0.05,0.967942139,5.04239E-05
0.14,5,0.05,0.970229144,3.50837E-05
0.15,5,0.05,0.972167781,2.51444E-05
0.16,5,0.05,0.973831951,1.8482E-05
0.17,5,0.05,0.975276081,1.38834E-05
0.18,5,0.05,0.97654112,1.06274E-05
0.19,5,0.05,0.977658458,8.27085E-06
0.2,5,0.05,0.978652557,6.53249E-06
0.21,5,0.05,0.979542759,5.22798E-06
0.22,5,0.05,0.98034456,4.23322E-06
0.23,5,0.05,0.981070518,3.46358E-06
0.24,5,0.05,0.98173092,2.86128E-06
0.25,5,0.05,0.982334271,2.3831E-06
0.001,10,0.05,0.055274411,0.099463468
0.002,10,0.05,0.097489569,0.115383329
0.003,10,0.05,0.132843819,0.129601902
0.004,10,0.05,0.164034571,0.142442493
0.005,10,0.05,0.192412299,0.154116228
0.006,10,0.05,0.218718681,0.164754947
0.007,10,0.05,0.243387871,0.174434362
0.008,10,0.05,0.266685848,0.18319151
0.009,10,0.05,0.288781379,0.191038573
0.01,10,0.05,0.309785061,0.197974232
0.02,10,0.05,0.470754119,0.219627936
0.03,10,0.05,0.568235135,0.188993651
0.04,10,0.05,0.633598112,0.151232835
0.05,10,0.05,0.683229071,0.119913016
0.06,10,0.05,0.723916307,0.095868193
0.07,10,0.05,0.758631755,0.077500174
0.08,10,0.05,0.788851164,0.063249887
0.09,10,0.05,0.815416647,0.051956967
0.1,10,0.05,0.838876883,0.042807365
0.11,10,0.05,0.859625444,0.035251531
0.12,10,0.05,0.877961757,0.028905935
0.13,10,0.05,0.89412235,0.023500182
0.14,10,0.05,0.908298192,0.018844054
0.15,10,0.05,0.920646293,0.014799755
0.16,10,0.05,0.931298917,0.011272573
0.17,10,0.05,0.940372283,0.008206484
0.18,10,0.05,0.947977436,0.005592804
0.19,10,0.05,0.954235296,0.003493874
0.2,10,0.05,0.959294099,0.002013073
0.21,10,0.05,0.963337171,0.001126394
0.22,10,0.05,0.966566433,0.000646737
0.23,10,0.05,0.969170414,0.000390715
0.24,10,0.05,0.971302435,0.000249067
0.25,10,0.05,0.973077419,0.000166575
0.001,15,0.05,0.037813163,0.098519197
0.002,15,0.05,0.066656032,0.11454967
0.003,15,0.05,0.090820611,0.128962907
0.004,15,0.05,0.112178702,0.142090546
0.005,15,0.05,0.131670847,0.154159012
0.006,15,0.05,0.149816383,0.165319088
0.007,15,0.05,0.166921422,0.175666207
0.008,15,0.05,0.183174857,0.185255214
0.009,15,0.05,0.198697069,0.194111764
0.01,15,0.05,0.213566595,0.202241738
0.02,15,0.05,0.333035549,0.24254207
0.03,15,0.05,0.411110245,0.225823398
0.04,15,0.05,0.465076628,0.192150864
0.05,15,0.05,0.506727934,0.160566619
0.06,15,0.05,0.541599844,0.134888358
0.07,15,0.05,0.572207527,0.114714166
0.08,15,0.05,0.599790805,0.098836659
0.09,15,0.05,0.625025121,0.086179284
0.1,15,0.05,0.64831877,0.07593194
0.11,15,0.05,0.6699477,0.067489722
0.12,15,0.05,0.69011721,0.06041724
0.13,15,0.05,0.708988524,0.054412498
0.14,15,0.05,0.726691846,0.049255595
0.15,15,0.05,0.743335353,0.044776163
0.16,15,0.05,0.759011194,0.040845321
0.17,15,0.05,0.773798491,0.03736904
0.18,15,0.05,0.787765153,0.034274608
0.19,15,0.05,0.800969982,0.03150088
0.2,15,0.05,0.813464729,0.028997581
0.21,15,0.05,0.825295308,0.026726282
0.22,15,0.05,0.836502313,0.024656982
0.23,15,0.05,0.847121622,0.022763402
0.24,15,0.05,0.857185282,0.021022001
0.25,15,0.05,0.866722231,0.019413615
0.001,20,0.05,0.02869476,0.096939866
0.002,20,0.05,0.050554263,0.112822326
0.003,20,0.05,0.068859699,0.127135074
0.004,20,0.05,0.085043302,0.140207573
0.005,20,0.05,0.099825862,0.152268966
0.006,20,0.05,0.113606352,0.163475789
0.007,20,0.05,0.126620757,0.173930972
0.008,20,0.05,0.139015341,0.183697457
0.009,20,0.05,0.150883771,0.192808482
0.01,20,0.05,0.162287398,0.201276057
0.02,20,0.05,0.255774064,0.248963374
0.03,20,0.05,0.319124326,0.239762472
0.04,20,0.05,0.363574172,0.209066442
0.05,20,0.05,0.398019006,0.177903422
0.06,20,0.05,0.426975177,0.151656274
0.07,20,0.05,0.452553046,0.130635802
0.08,20,0.05,0.475798518,0.113928338
0.09,20,0.05,0.497277001,0.100527928
0.1,20,0.05,0.517321751,0.089640578
0.11,20,0.05,0.536148249,0.080669891
0.12,20,0.05,0.553910835,0.073162388
0.13,20,0.05,0.570729662,0.066785896
0.14,20,0.05,0.586702071,0.061306892
0.15,20,0.05,0.601908074,0.056555046
0.16,20,0.05,0.61641474,0.052395638
0.17,20,0.05,0.630279904,0.048720588
0.18,20,0.05,0.64355434,0.045447831
0.19,20,0.05,0.656282551,0.042516822
0.2,20,0.05,0.668503259,0.039879725
0.21,20,0.05,0.680250322,0.037494821
0.22,20,0.05,0.691553902,0.035325528
0.23,20,0.05,0.702441326,0.03334224
0.24,20,0.05,0.712937381,0.031522559
0.25,20,0.05,0.723064335,0.029848812
0.001,25,0.05,0.02310948,0.095645822
0.002,25,0.05,0.040697131,0.111377548
0.003,25,0.05,0.055418303,0.125570838
0.004,25,0.05,0.068432603,0.138551961
0.005,25,0.05,0.080324111,0.150550064
0.006,25,0.05,0.091416572,0.161723873
0.007,25,0.05,0.101901851,0.172179815
0.008,25,0.05,0.111899186,0.181985044
0.009,25,0.05,0.121485184,0.191177147
0.01,25,0.05,0.13071019,0.199772034
0.02,25,0.05,0.207172756,0.251217068
0.03,25,0.05,0.260091815,0.246590479
0.04,25,0.05,0.297573809,0.217985114
0.05,25,0.05,0.32667219,0.187280606
0.06,25,0.05,0.351162916,0.160808068
0.07,25,0.05,0.372846527,0.139325469
0.08,25,0.05,0.392620177,0.122129528
0.09,25,0.05,0.410968119,0.108281963
0.1,25,0.05,0.42817336,0.09699783
0.11,25,0.05,0.444415078,0.087686376
0.12,25,0.05,0.459817828,0.07989586
0.13,25,0.05,0.474476782,0.073281941
0.14,25,0.05,0.48846919,0.067594798
0.15,25,0.05,0.501858966,0.062657189
0.16,25,0.05,0.514699333,0.058335922
0.17,25,0.05,0.527035462,0.054522762
0.18,25,0.05,0.538906821,0.051129289
0.19,25,0.05,0.55034852,0.048087326
0.2,25,0.05,0.561391711,0.045346341
0.21,25,0.05,0.572063711,0.042867022
0.22,25,0.05,0.582388427,0.040615306
0.23,25,0.05,0.592387097,0.038560219
0.24,25,0.05,0.602079013,0.036674974
0.25,25,0.05,0.611481907,0.034938387
0.001,30,0.05,0.019341369,0.094652993
0.002,30,0.05,0.034050539,0.110261214
0.003,30,0.05,0.046357485,0.124352819
0.004,30,0.05,0.057236336,0.137251407
0.005,30,0.05,0.067178011,0.149185433
0.006,30,0.05,0.076454846,0.160314526
0.007,30,0.05,0.08522845,0.17074705
0.008,30,0.05,0.09359943,0.180552668
0.009,30,0.05,0.101632568,0.189771748
0.01,30,0.05,0.109370541,0.198422751
0.02,30,0.05,0.173950825,0.252088889
0.03,30,0.05,0.219266053,0.250508097
0.04,30,0.05,0.251572578,0.223421662
0.05,30,0.05,0.276680789,0.193114218
0.06,30,0.05,0.297821507,0.166547498
0.07,30,0.05,0.316558799,0.144784264
0.08,30,0.05,0.333675455,0.127271508
0.09,30,0.05,0.349593936,0.113128743
0.1,30,0.05,0.364560257,0.101580253
0.11,30,0.05,0.378728551,0.09203681
0.12,30,0.05,0.39220391,0.084049955
0.13,30,0.05,0.405065173,0.077272307
0.14,30,0.05,0.417376056,0.07144419
0.15,30,0.05,0.429189636,0.066379967
0.16,30,0.05,0.440550266,0.061944623
0.17,30,0.05,0.451495286,0.05803166
0.18,30,0.05,0.462056923,0.054552295
0.19,30,0.05,0.472263785,0.05143429
0.2,30,0.05,0.482141566,0.048622436
0.21,30,0.05,0.491713154,0.046075595
0.22,30,0.05,0.500998667,0.043761116
0.23,30,0.05,0.51001576,0.041650129
0.24,30,0.05,0.518780178,0.039716005
0.25,30,0.05,0.527306292,0.037935352
0.001,35,0.05,0.016628462,0.093884351
0.002,35,0.05,0.029267425,0.109393512
0.003,35,0.05,0.039838889,0.123402304
0.004,35,0.05,0.049182616,0.136231903
0.005,35,0.05,0.057721962,0.148110031
0.006,35,0.05,0.065691923,0.159196746
0.007,35,0.05,0.073232071,0.169601603
0.008,35,0.05,0.080429399,0.179395835
0.009,35,0.05,0.087340013,0.188621702
0.01,35,0.05,0.094000943,0.197299503
0.02,35,0.05,0.149854566,0.252414133
0.03,35,0.05,0.189427654,0.252998449
0.04,35,0.05,0.217776256,0.22705811
0.05,35,0.05,0.239825372,0.197081538
0.06,35,0.05,0.258392578,0.170477678
0.07,35,0.05,0.274857861,0.148530277
0.08,35,0.05,0.289914379,0.130797312
0.09,35,0.05,0.303936305,0.116445794
0.1,35,0.05,0.31714115,0.104709554
0.11,35,0.05,0.329664403,0.094999606
0.12,35,0.05,0.34159729,0.08686967
0.13,35,0.05,0.353007233,0.079972342
0.14,35,0.05,0.363948345,0.074042584
0.15,35,0.05,0.374465868,0.068887995
0.16,35,0.05,0.384597831,0.064370296
0.17,35,0.05,0.394376201,0.060383576
0.18,35,0.05,0.403828309,0.05684011
0.19,35,0.05,0.412978235,0.053666435
0.2,35,0.05,0.421847667,0.050804191
0.21,35,0.05,0.430456147,0.048209487
0.22,35,0.05,0.438821044,0.045849068
0.23,35,0.05,0.446957612,0.043695322
0.24,35,0.05,0.454879304,0.041723022
0.25,35,0.05,0.462598221,0.039908817
0.001,40,0.05,0.014582379,0.093275526
0.002,40,0.05,0.025661326,0.108704788
0.003,40,0.05,0.034925575,0.122646094
0.004,40,0.05,0.043113079,0.135418734
0.005,40,0.05,0.050595962,0.147249737
0.006,40,0.05,0.057580872,0.158299298
0.007,40,0.05,0.064190623,0.168677741
0.008,40,0.05,0.070501832,0.178457468
0.009,40,0.05,0.076563972,0.187682068
0.01,40,0.05,0.08240974,0.196373194
0.02,40,0.05,0.13159567,0.252501004
0.03,40,0.05,0.166695383,0.254701001
0.04,40,0.05,0.191932179,0.229653213
0.05,40,0.05,0.211572353,0.199950835
0.06,40,0.05,0.228111216,0.173335736
0.07,40,0.05,0.24278223,0.151259592
0.08,40,0.05,0.256206788,0.133365189
0.09,40,0.05,0.268720436,0.118858402
0.1,40,0.05,0.280518028,0.106982217
0.11,40,0.05,0.291720526,0.097147617
0.12,40,0.05,0.302408684,0.0889095
0.13,40,0.05,0.312641487,0.081921203
0.14,40,0.05,0.322465934,0.07591477
0.15,40,0.05,0.331921374,0.070692786
0.16,40,0.05,0.341041057,0.06611357
0.17,40,0.05,0.349852976,0.062070864
0.18,40,0.05,0.358380936,0.058477992
0.19,40,0.05,0.366645745,0.055261505
0.2,40,0.05,0.374666103,0.05236131
0.21,40,0.05,0.382458974,0.049731229
0.22,40,0.05,0.390039587,0.047336688
0.23,40,0.05,0.397421395,0.045150336
0.24,40,0.05,0.404616223,0.043148069
0.25,40,0.05,0.411634593,0.041307312
0.001,45,0.05,0.012984341,0.0927858
0.002,45,0.05,0.022845729,0.108149785
0.003,45,0.05,0.03109011,0.122035652
0.004,45,0.05,0.038375632,0.134761125
0.005,45,0.05,0.045034243,0.146552523
0.006,45,0.05,0.051250339,0.157570164
0.007,45,0.05,0.057133562,0.167924835
0.008,45,0.05,0.062752363,0.177689876
0.009,45,0.05,0.068150977,0.186909742
0.01,45,0.05,0.073358675,0.195607202
0.02,45,0.05,0.117289512,0.252478292
0.03,45,0.05,0.148812728,0.255926873
0.04,45,0.05,0.171544136,0.231591765
0.05,45,0.05,0.18924263,0.202118311
0.06,45,0.05,0.204145926,0.175505
0.07,45,0.05,0.217368449,0.15333527
0.08,45,0.05,0.229472998,0.135318517
0.09,45,0.05,0.240763584,0.120692446
0.1,45,0.05,0.251416641,0.10870846
0.11,45,0.05,0.261541448,0.098777482
0.12,45,0.05,0.27121053,0.090454984
0.13,45,0.05,0.280476378,0.083395223
0.14,45,0.05,0.289380528,0.077328674
0.15,45,0.05,0.297957757,0.072054315
0.16,45,0.05,0.306237578,0.067427444
0.17,45,0.05,0.314244903,0.063341001
0.18,45,0.05,0.322000855,0.059709021
0.19,45,0.05,0.329523779,0.056458503
0.2,45,0.05,0.336830098,0.053528503
0.21,45,0.05,0.343934752,0.050871137
0.22,45,0.05,0.350851255,0.048450448
0.23,45,0.05,0.357591633,0.046238786
0.24,45,0.05,0.364166461,0.044212703
0.25,45,0.05,0.370585091,0.042350451
0.001,50,0.05,0.011701791,0.092383787
0.002,50,0.05,0.020586553,0.107693772
0.003,50,0.05,0.028013142,0.121533625
0.004,50,0.05,0.034575472,0.134219636
0.005,50,0.05,0.040573141,0.145977666
0.006,50,0.05,0.046172617,0.156967977
0.007,50,0.05,0.05147292,0.167301748
0.008,50,0.05,0.056535903,0.177052986
0.009,50,0.05,0.061401565,0.1862669
0.01,50,0.05,0.066096401,0.194967071
0.02,50,0.05,0.105781304,0.252405671
0.03,50,0.05,0.13438286,0.256847948
0.04,50,0.05,0.155056243,0.233094702
0.05,50,0.05,0.17115839,0.203814253
0.06,50,0.05,0.184716781,0.177208818
0.07,50,0.05,0.196747388,0.154968071
0.08,50,0.05,0.207764342,0.136855089
0.09,50,0.05,0.21804546,0.1221341
0.1,50,0.05,0.227751908,0.110064154
0.11,50,0.05,0.236983354,0.100056232
0.12,50,0.05,0.24580566,0.091666037
0.13,50,0.05,0.254266148,0.08454864
0.14,50,0.05,0.262402035,0.078433689
0.15,50,0.05,0.270244456,0.073117492
0.16,50,0.05,0.27781992,0.068452747
0.17,50,0.05,0.285150872,0.064331405
0.18,50,0.05,0.292256317,0.060667921
0.19,50,0.05,0.299152677,0.05738982
0.2,50,0.05,0.305854591,0.054435784
0.21,50,0.05,0.312375386,0.051756741
0.22,50,0.05,0.318727182,0.049315485
0.23,50,0.05,0.324920837,0.047083828
0.24,50,0.05,0.330965926,0.045038625
0.25,50,0.05,0.336870888,0.0431588
0.001,55,0.05,0.010649826,0.092047132
0.002,55,0.05,0.018733916,0.107311653
0.003,55,0.05,0.025490225,0.121112656
0.004,55,0.05,0.031459864,0.133765235
0.005,55,0.05,0.036915826,0.145494783
0.006,55,0.05,0.042009829,0.156461511
0.007,55,0.05,0.046832147,0.166776953
0.008,55,0.05,0.051439194,0.176515522
0.009,55,0.05,0.055867475,0.185723108
0.01,55,0.05,0.060141187,0.194423977
0.02,55,0.05,0.096325381,0.252309024
0.03,55,0.05,0.122496953,0.257560687
0.04,55,0.05,0.141450927,0.234291374
0.05,55,0.05,0.156218459,0.205175695
0.06,55,0.05,0.168652382,0.178581269
0.07,55,0.05,0.179685972,0.156285275
0.08,55,0.05,0.189792341,0.138094957
0.09,55,0.05,0.199227217,0.123296887
0.1,55,0.05,0.20813891,0.111156981
0.11,55,0.05,0.216619037,0.101086375
0.12,55,0.05,0.224727943,0.092640802
0.13,55,0.05,0.232508733,0.085476039
0.14,55,0.05,0.239995125,0.079321298
0.15,55,0.05,0.24721529,0.073970901
0.16,55,0.05,0.254193276,0.069275363
0.17,55,0.05,0.260949502,0.065125584
0.18,55,0.05,0.267501252,0.061436229
0.19,55,0.05,0.273863405,0.058135325
0.2,55,0.05,0.280049168,0.055161462
0.21,55,0.05,0.286070557,0.052464722
0.22,55,0.05,0.291938547,0.050006856
0.23,55,0.05,0.297663018,0.04775906
0.24,55,0.05,0.303252721,0.045698259
0.25,55,0.05,0.308715356,0.043803886
0.001,60,0.05,0.009771333,0.091762341
0.002,60,0.05,0.017187059,0.106988061
0.003,60,0.05,0.023383987,0.120755962
0.004,60,0.05,0.028859042,0.133379916
0.005,60,0.05,0.033862953,0.145085004
0.006,60,0.05,0.038535087,0.156031327
0.007,60,0.05,0.04295839,0.166330628
0.008,60,0.05,0.047184717,0.176057792
0.009,60,0.05,0.051247637,0.185259187
0.01,60,0.05,0.055169416,0.193959561
0.02,60,0.05,0.088418471,0.25220451
0.03,60,0.05,0.112538161,0.258127835
0.04,60,0.05,0.130034846,0.235267021
0.05,60,0.05,0.143670576,0.206293284
0.06,60,0.05,0.155150909,0.179711112
0.07,60,0.05,0.165338732,0.157371009
0.08,60,0.05,0.174672134,0.139117211
0.09,60,0.05,0.183387976,0.124255259
0.1,60,0.05,0.191623601,0.112057249
0.11,60,0.05,0.199463778,0.101934539
0.12,60,0.05,0.206964204,0.093442795
0.13,60,0.05,0.214164474,0.086238357
0.14,60,0.05,0.221095413,0.080050247
0.15,60,0.05,0.227782736,0.074671271
0.16,60,0.05,0.23424844,0.069950104
0.17,60,0.05,0.24051125,0.065776649
0.18,60,0.05,0.246587022,0.062065613
0.19,60,0.05,0.252489363,0.058745472
0.2,60,0.05,0.258230309,0.055754879
0.21,60,0.05,0.263820796,0.053043315
0.22,60,0.05,0.269270838,0.050571676
0.23,60,0.05,0.274589494,0.048310557
0.24,60,0.05,0.279784816,0.046236802
0.25,60,0.05,0.284863892,0.044330215
0.001,65,0.05,0.009026686,0.091518424
0.002,65,0.05,0.015876081,0.106710973
0.003,65,0.05,0.021599123,0.12045023
0.004,65,0.05,0.026655224,0.133049499
0.005,65,0.05,0.031276204,0.144733382
0.006,65,0.05,0.035590937,0.155661904
0.007,65,0.05,0.039676142,0.165947028
0.008,65,0.05,0.043579795,0.175663928
0.009,65,0.05,0.047332967,0.184859397
0.01,65,0.05,0.050956277,0.193558674
0.02,65,0.05,0.081709372,0.252099566
0.03,65,0.05,0.104073935,0.258589028
0.04,65,0.05,0.120320174,0.236077406
0.05,65,0.05,0.132984278,0.20722686
0.06,65,0.05,0.143646002,0.180657046
0.07,65,0.05,0.153107624,0.158280788
0.08,65,0.05,0.161776991,0.139973701
0.09,65,0.05,0.169874674,0.12505773
0.1,65,0.05,0.177528546,0.112810518
0.11,65,0.05,0.184817484,0.102643736
0.12,65,0.05,0.19179321,0.094112899
0.13,65,0.05,0.198492346,0.086874817
0.14,65,0.05,0.204943288,0.080658454
0.15,65,0.05,0.211169683,0.075255415
0.16,65,0.05,0.217191793,0.070512809
0.17,65,0.05,0.223026906,0.066319587
0.18,65,0.05,0.22868967,0.062590406
0.19,65,0.05,0.234192628,0.059254097
0.2,65,0.05,0.239546837,0.056249431
0.21,65,0.05,0.24476233,0.053525476
0.22,65,0.05,0.24984831,0.051042419
0.23,65,0.05,0.254813134,0.048770267
0.24,65,0.05,0.259664258,0.04668574
0.25,65,0.05,0.264408248,0.044768862
0.001,70,0.05,0.00838747,0.091307256
0.002,70,0.05,0.014750868,0.106470974
0.003,70,0.05,0.020067321,0.120185365
0.004,70,0.05,0.024763992,0.13276314
0.005,70,0.05,0.029056444,0.14442839
0.006,70,0.05,0.033064529,0.155341301
0.007,70,0.05,0.036859606,0.165613835
0.008,70,0.05,0.040486311,0.175321487
0.009,70,0.05,0.043973565,0.184511419
0.01,70,0.05,0.047340564,0.193209193
0.02,70,0.05,0.075945421,0.251997295
0.03,70,0.05,0.09679189,0.258970019
0.04,70,0.05,0.111953653,0.236759967
0.05,70,0.05,0.123774746,0.208017202
0.06,70,0.05,0.133726251,0.1814595
0.07,70,0.05,0.14255773,0.15905339
0.08,70,0.05,0.150650666,0.14070141
0.09,70,0.05,0.15821142,0.125739698
0.1,70,0.05,0.165359612,0.113450788
0.11,70,0.05,0.172168991,0.103246631
0.12,70,0.05,0.178687839,0.094682561
0.13,70,0.05,0.184950231,0.087415759
0.14,70,0.05,0.190982488,0.081175181
0.15,70,0.05,0.196806501,0.075751527
0.16,70,0.05,0.202441044,0.070990575
0.17,70,0.05,0.207902173,0.066780407
0.18,70,0.05,0.213203499,0.063035563
0.19,70,0.05,0.218356663,0.059685212
0.2,70,0.05,0.223371892,0.056668255
0.21,70,0.05,0.228258453,0.053933494
0.22,70,0.05,0.233024854,0.051440532
0.23,70,0.05,0.237678849,0.049158866
0.24,70,0.05,0.242227375,0.047065017
0.25,70,0.05,0.246676553,0.045139192
0.001,5,0.06,0.101251686,0.094286334
0.002,5,0.06,0.17822954,0.107870226
0.003,5,0.06,0.242016671,0.119298575
0.004,5,0.06,0.29739426,0.128818682
0.005,5,0.06,0.346729294,0.136570163
0.006,5,0.06,0.391311406,0.142633908
0.007,5,0.06,0.431901931,0.147068092
0.008,5,0.06,0.468989582,0.149933835
0.009,5,0.06,0.502920245,0.151311168
0.01,5,0.06,0.533966051,0.151306117
0.02,5,0.06,0.731149166,0.107649923
0.03,5,0.06,0.821566327,0.055750788
0.04,5,0.06,0.871759734,0.023847931
0.05,5,0.06,0.90264895,0.009051922
0.06,5,0.06,0.92261846,0.003529703
0.07,5,0.06,0.936068942,0.001528059
0.08,5,0.06,0.945530721,0.000739367
0.09,5,0.06,0.952470334,0.000393689
0.1,5,0.06,0.957749096,0.000226603
0.11,5,0.06,0.961888774,0.000138879
0.12,5,0.06,0.965217927,8.9566E-05
0.13,5,0.06,0.967951634,6.02339E-05
0.14,5,0.06,0.9702358,4.19441E-05
0.15,5,0.06,0.972172579,3.00799E-05
0.16,5,0.06,0.973835494,2.21202E-05
0.17,5,0.06,0.975278752,1.66222E-05
0.18,5,0.06,0.976543172,1.27287E-05
0.19,5,0.06,0.977660059,9.90845E-06
0.2,5,0.06,0.978653825,7.82816E-06
0.21,5,0.06,0.979543775,6.2652E-06
0.22,5,0.06,0.980345384,5.07375E-06
0.23,5,0.06,0.981071193,4.1516E-06
0.24,5,0.06,0.981731478,3.42967E-06
0.25,5,0.06,0.982334737,2.85749E-06
0.001,10,0.06,0.055687204,0.107674335
0.002,10,0.06,0.098326849,0.124962694
0.003,10,0.06,0.134118272,0.140438872
0.004,10,0.06,0.165759674,0.154457222
0.005,10,0.06,0.194602011,0.167250431
0.006,10,0.06,0.221387033,0.178964873
0.007,10,0.06,0.246548436,0.189685229
0.008,10,0.06,0.270351115,0.199453014
0.009,10,0.06,0.292962047,0.208281156
0.01,10,0.06,0.314489296,0.216166046
0.02,10,0.06,0.480247565,0.244223519
0.03,10,0.06,0.579794569,0.213180986
0.04,10,0.06,0.645044128,0.172029977
0.05,10,0.06,0.693703224,0.137081695
0.06,10,0.06,0.733183743,0.109897284
0.07,10,0.06,0.76669675,0.088955052
0.08,10,0.06,0.795802212,0.072618829
0.09,10,0.06,0.8213633,0.059628656
0.1,10,0.06,0.843925132,0.049082841
0.11,10,0.06,0.863870963,0.040364432
0.12,10,0.06,0.881489584,0.033040286
0.13,10,0.06,0.897008569,0.026804032
0.14,10,0.06,0.91061247,0.021439994
0.15,10,0.06,0.922454428,0.016792806
0.16,10,0.06,0.932665391,0.01275639
0.17,10,0.06,0.941362765,0.009268415
0.18,10,0.06,0.948660579,0.006317467
0.19,10,0.06,0.954682337,0.003963992
0.2,10,0.06,0.959574195,0.002305642
0.21,10,0.06,0.96350917,0.00130514
0.22,10,0.06,0.966672891,0.000756948
0.23,10,0.06,0.969238166,0.00046065
0.24,10,0.06,0.971347138,0.000295102
0.25,10,0.06,0.973108009,0.000198016
0.001,15,0.06,0.03810891,0.107111014
0.002,15,0.06,0.067255948,0.124580813
0.003,15,0.06,0.091733946,0.140316292
0.004,15,0.06,0.113415486,0.154682235
0.005,15,0.06,0.133241798,0.167929161
0.006,15,0.06,0.151732773,0.180225374
0.007,15,0.06,0.169194876,0.19167867
0.008,15,0.06,0.185817098,0.202352156
0.009,15,0.06,0.201719603,0.212276317
0.01,15,0.06,0.216980338,0.221458902
0.02,15,0.06,0.340549024,0.270574539
0.03,15,0.06,0.42139676,0.256495099
0.04,15,0.06,0.476250477,0.22079327
0.05,15,0.06,0.517763705,0.185842011
0.06,15,0.06,0.552082184,0.156853441
0.07,15,0.06,0.582002048,0.133794816
0.08,15,0.06,0.60888433,0.115496298
0.09,15,0.06,0.633454979,0.100828834
0.1,15,0.06,0.656139652,0.08891126
0.11,15,0.06,0.677215331,0.079069912
0.12,15,0.06,0.696882032,0.0708119
0.13,15,0.06,0.715294976,0.063791496
0.14,15,0.06,0.732578993,0.057755927
0.15,15,0.06,0.748837122,0.052509035
0.16,15,0.06,0.764156805,0.047901587
0.17,15,0.06,0.778613461,0.043824081
0.18,15,0.06,0.792272215,0.040192031
0.19,15,0.06,0.805189421,0.036934735
0.2,15,0.06,0.817414491,0.033993858
0.21,15,0.06,0.82899133,0.031324398
0.22,15,0.06,0.839959009,0.028891194
0.23,15,0.06,0.850352156,0.026663754
0.24,15,0.06,0.860201596,0.024614833
0.25,15,0.06,0.86953509,0.022722018
0.001,20,0.06,0.028920568,0.105572027
0.002,20,0.06,0.051012176,0.122902105
0.003,20,0.06,0.069556644,0.13854307
0.004,20,0.06,0.085986824,0.152857728
0.005,20,0.06,0.101024085,0.166099802
0.006,20,0.06,0.115067915,0.178444082
0.007,20,0.06,0.128354708,0.190006842
0.008,20,0.06,0.141031003,0.200860555
0.009,20,0.06,0.153190563,0.211044778
0.01,20,0.06,0.164894613,0.22057506
0.02,20,0.06,0.261672805,0.277767355
0.03,20,0.06,0.327601365,0.272694825
0.04,20,0.06,0.373146033,0.24089768
0.05,20,0.06,0.407740642,0.206673778
0.06,20,0.06,0.436417812,0.177125365
0.07,20,0.06,0.461549878,0.153113035
0.08,20,0.06,0.484302915,0.133838633
0.09,20,0.06,0.505296758,0.11827652
0.1,20,0.06,0.524888146,0.10557776
0.11,20,0.06,0.543299958,0.095085003
0.12,20,0.06,0.560685397,0.086287615
0.13,20,0.06,0.577160332,0.078805857
0.14,20,0.06,0.592817982,0.072370187
0.15,20,0.06,0.607735113,0.066783497
0.16,20,0.06,0.62197578,0.061889918
0.17,20,0.06,0.635594722,0.057563895
0.18,20,0.06,0.648639934,0.05370933
0.19,20,0.06,0.661153904,0.050255055
0.2,20,0.06,0.673173997,0.047145218
0.21,20,0.06,0.684732899,0.044331496
0.22,20,0.06,0.695859482,0.041771413
0.23,20,0.06,0.70657975,0.039430163
0.24,20,0.06,0.716917425,0.037281137
0.25,20,0.06,0.726894074,0.035303447
0.001,25,0.06,0.023290844,0.104244488
0.002,25,0.06,0.041064836,0.12141902
0.003,25,0.06,0.055977829,0.136935064
0.004,25,0.06,0.069189929,0.151152023
0.005,25,0.06,0.081285696,0.164323658
0.006,25,0.06,0.092589312,0.176627079
0.007,25,0.06,0.103293022,0.188182493
0.008,25,0.06,0.113516355,0.199067112
0.009,25,0.06,0.123336088,0.209325488
0.01,25,0.06,0.132802593,0.218977932
0.02,25,0.06,0.211968126,0.280178641
0.03,25,0.06,0.26716916,0.280511388
0.04,25,0.06,0.305744828,0.251429521
0.05,25,0.06,0.335099893,0.217910848
0.06,25,0.06,0.359443429,0.188180225
0.07,25,0.06,0.380810748,0.163662131
0.08,25,0.06,0.400210444,0.143822918
0.09,25,0.06,0.418178947,0.127727828
0.1,25,0.06,0.435023365,0.114547826
0.11,25,0.06,0.45093253,0.103637554
0.12,25,0.06,0.466032413,0.094490998
0.13,25,0.06,0.480415485,0.086715481
0.14,25,0.06,0.494155408,0.080022556
0.15,25,0.06,0.507313269,0.074206358
0.16,25,0.06,0.519940181,0.069112267
0.17,25,0.06,0.532079266,0.064614694
0.18,25,0.06,0.543767771,0.060610496
0.19,25,0.06,0.55503875,0.057019431
0.2,25,0.06,0.565921859,0.053781759
0.21,25,0.06,0.576443501,0.05085134
0.22,25,0.06,0.586626914,0.048188661
0.23,25,0.06,0.596492576,0.045757856
0.24,25,0.06,0.606058852,0.043527562
0.25,25,0.06,0.615342569,0.041472591
0.001,30,0.06,0.019492486,0.10320568
0.002,30,0.06,0.034356875,0.12024969
0.003,30,0.06,0.046823555,0.135656865
0.004,30,0.06,0.05786707,0.149783711
0.005,30,0.06,0.067978744,0.162883229
0.006,30,0.06,0.07743129,0.175133497
0.007,30,0.06,0.086386654,0.186656807
0.008,30,0.06,0.094945715,0.197533117
0.009,30,0.06,0.103173442,0.207810142
0.01,30,0.06,0.111112595,0.217511229
0.02,30,0.06,0.177972484,0.281036579
0.03,30,0.06,0.225302066,0.284932409
0.04,30,0.06,0.258643772,0.257809559
0.05,30,0.06,0.284047176,0.224879853
0.06,30,0.06,0.305111359,0.195101375
0.07,30,0.06,0.323609979,0.170283729
0.08,30,0.06,0.340427624,0.150082678
0.09,30,0.06,0.356035318,0.133638502
0.1,30,0.06,0.370702205,0.120139183
0.11,30,0.06,0.384592607,0.108945398
0.12,30,0.06,0.397814336,0.099557149
0.13,30,0.06,0.410444733,0.091579266
0.14,30,0.06,0.422544516,0.084712121
0.15,30,0.06,0.434164113,0.078739731
0.16,30,0.06,0.445346049,0.073504838
0.17,30,0.06,0.456126198,0.068883715
0.18,30,0.06,0.466535186,0.064773032
0.19,30,0.06,0.476599881,0.061088047
0.2,30,0.06,0.486344448,0.057763395
0.21,30,0.06,0.495790742,0.054750298
0.22,30,0.06,0.504958292,0.052010444
0.23,30,0.06,0.513864329,0.0495104
0.24,30,0.06,0.522524069,0.047219344
0.25,30,0.06,0.530951189,0.045109868
0.001,35,0.06,0.01675781,0.102393361
0.002,35,0.06,0.029529602,0.119331437
0.003,35,0.06,0.040237729,0.134649048
0.004,35,0.06,0.049722307,0.14870001
0.005,35,0.06,0.058407039,0.161736452
0.006,35,0.06,0.066527249,0.173936871
0.007,35,0.06,0.074222808,0.185424828
0.008,35,0.06,0.08158096,0.196282026
0.009,35,0.06,0.088657994,0.206558278
0.01,35,0.06,0.095491043,0.216279057
0.02,35,0.06,0.153310556,0.281297676
0.03,35,0.06,0.194674926,0.28770734
0.04,35,0.06,0.22398742,0.26205485
0.05,35,0.06,0.246341544,0.229606826
0.06,35,0.06,0.264873114,0.199833485
0.07,35,0.06,0.281150201,0.17482366
0.08,35,0.06,0.295958854,0.1543735
0.09,35,0.06,0.309718114,0.137684047
0.1,35,0.06,0.322667233,0.123958764
0.11,35,0.06,0.334951754,0.112561852
0.12,35,0.06,0.34666624,0.102997691
0.13,35,0.06,0.357877433,0.094871983
0.14,35,0.06,0.368636992,0.087879181
0.15,35,0.06,0.378987705,0.081795279
0.16,35,0.06,0.388965884,0.076458835
0.17,35,0.06,0.398602304,0.071746559
0.18,35,0.06,0.407923113,0.06755643
0.19,35,0.06,0.416951009,0.06380251
0.2,35,0.06,0.425706282,0.060415834
0.21,35,0.06,0.434207387,0.057344181
0.22,35,0.06,0.442471039,0.054548159
0.23,35,0.06,0.450512144,0.051995546
0.24,35,0.06,0.458343849,0.049657206
0.25,35,0.06,0.465977816,0.047506059
0.001,40,0.06,0.014695362,0.101746129
0.002,40,0.06,0.025890314,0.118598279
0.003,40,0.06,0.035273896,0.133842509
0.004,40,0.06,0.043584368,0.147830521
0.005,40,0.06,0.051194159,0.160813692
0.006,40,0.06,0.058310208,0.172970652
0.007,40,0.06,0.065055593,0.184425699
0.008,40,0.06,0.071507163,0.195261852
0.009,40,0.06,0.077714562,0.205530346
0.01,40,0.06,0.083710599,0.215258253
0.02,40,0.06,0.134622381,0.281308628
0.03,40,0.06,0.171329725,0.289583272
0.04,40,0.06,0.19746045,0.265071225
0.05,40,0.06,0.217402685,0.233018066
0.06,40,0.06,0.233930891,0.203270401
0.07,40,0.06,0.248448555,0.178128984
0.08,40,0.06,0.261662125,0.157497606
0.09,40,0.06,0.273948601,0.140626662
0.1,40,0.06,0.285523152,0.126733473
0.11,40,0.06,0.296516398,0.115184673
0.12,40,0.06,0.307012696,0.10548757
0.13,40,0.06,0.317070889,0.097249508
0.14,40,0.06,0.326735974,0.090161854
0.15,40,0.06,0.336045055,0.083994717
0.16,40,0.06,0.345029743,0.078582427
0.17,40,0.06,0.353716972,0.073801042
0.18,40,0.06,0.362129623,0.069549738
0.19,40,0.06,0.370287408,0.065742757
0.2,40,0.06,0.378207813,0.062309257
0.21,40,0.06,0.385906737,0.059194268
0.22,40,0.06,0.393398703,0.056356607
0.23,40,0.06,0.400696802,0.053764097
0.24,40,0.06,0.407812643,0.051388815
0.25,40,0.06,0.414756474,0.049204699
0.001,45,0.06,0.013084596,0.101223444
0.002,45,0.06,0.023048907,0.118005091
0.003,45,0.06,0.03139915,0.133188842
0.004,45,0.06,0.038793744,0.147124628
0.005,45,0.06,0.045564908,0.160063027
0.006,45,0.06,0.051897297,0.172182736
0.007,45,0.06,0.057900794,0.183608599
0.008,45,0.06,0.063644056,0.19442451
0.009,45,0.06,0.069171486,0.204682812
0.01,45,0.06,0.074512463,0.214411757
0.02,45,0.06,0.119980237,0.28121125
0.03,45,0.06,0.152959081,0.290920628
0.04,45,0.06,0.176520099,0.26731642
0.05,45,0.06,0.194511967,0.235590507
0.06,45,0.06,0.209420446,0.205876532
0.07,45,0.06,0.222514799,0.180641289
0.08,45,0.06,0.234436082,0.159873394
0.09,45,0.06,0.24552671,0.14286357
0.1,45,0.06,0.255982075,0.128841317
0.11,45,0.06,0.265920648,0.117175202
0.12,45,0.06,0.275418625,0.107374453
0.13,45,0.06,0.28452871,0.099048153
0.14,45,0.06,0.293290802,0.091886151
0.15,45,0.06,0.301737631,0.08565433
0.16,45,0.06,0.309897145,0.080183299
0.17,45,0.06,0.317793275,0.075347972
0.18,45,0.06,0.325446383,0.071048299
0.19,45,0.06,0.33287393,0.06719914
0.2,45,0.06,0.340091296,0.063728794
0.21,45,0.06,0.347112425,0.060580318
0.22,45,0.06,0.353950107,0.057710762
0.23,45,0.06,0.36061597,0.055087367
0.24,45,0.06,0.367120403,0.052682851
0.25,45,0.06,0.373472579,0.050472133
0.001,50,0.06,0.011791874,0.100793201
0.002,50,0.06,0.020769108,0.117516448
0.003,50,0.06,0.028290798,0.132649855
0.004,50,0.06,0.034951102,0.146541866
0.005,50,0.06,0.041049863,0.159442553
0.006,50,0.06,0.04675378,0.171530439
0.007,50,0.06,0.052162093,0.182930798
0.008,50,0.06,0.057336845,0.193728251
0.009,50,0.06,0.062318192,0.203975964
0.01,50,0.06,0.067132734,0.213703095
0.02,50,0.06,0.108202333,0.281069626
0.03,50,0.06,0.13813242,0.291916607
0.04,50,0.06,0.159577676,0.269051687
0.05,50,0.06,0.175962084,0.237600241
0.06,50,0.06,0.189535961,0.207921681
0.07,50,0.06,0.20145726,0.182616478
0.08,50,0.06,0.212312476,0.161741791
0.09,50,0.06,0.222415126,0.144621848
0.1,50,0.06,0.231944103,0.130496937
0.11,50,0.06,0.24100778,0.11873727
0.12,50,0.06,0.249675664,0.108853403
0.13,50,0.06,0.257995528,0.100455964
0.14,50,0.06,0.266003233,0.093234082
0.15,50,0.06,0.273728055,0.086950564
0.16,50,0.06,0.281195014,0.081432841
0.17,50,0.06,0.288425625,0.076554487
0.18,50,0.06,0.295438234,0.072215857
0.19,50,0.06,0.302248539,0.068332503
0.2,50,0.06,0.308870282,0.0648324
0.21,50,0.06,0.315315874,0.061657259
0.22,50,0.06,0.32159672,0.058762595
0.23,50,0.06,0.327723253,0.056114841
0.24,50,0.06,0.333704859,0.053686919
0.25,50,0.06,0.339549853,0.051454518
0.001,55,0.06,0.010731599,0.100432242
0.002,55,0.06,0.018899623,0.11710615
0.003,55,0.06,0.025742245,0.132197016
0.004,55,0.06,0.031800795,0.146051865
0.005,55,0.06,0.03734849,0.158920308
0.006,55,0.06,0.04253726,0.170980819
0.007,55,0.06,0.047457578,0.182358952
0.008,55,0.06,0.052166034,0.193139782
0.009,55,0.06,0.05669928,0.203377216
0.01,55,0.06,0.061081612,0.213101131
0.02,55,0.06,0.098525348,0.280910401
0.03,55,0.06,0.125917977,0.292681113
0.04,55,0.06,0.145592414,0.270429714
0.05,55,0.06,0.16063029,0.239211567
0.06,55,0.06,0.173086505,0.209567931
0.07,55,0.06,0.184025336,0.184209228
0.08,55,0.06,0.193987125,0.163249094
0.09,55,0.06,0.203260918,0.146039983
0.1,55,0.06,0.212011638,0.131831677
0.11,55,0.06,0.220339141,0.119995866
0.12,55,0.06,0.228307338,0.110044036
0.13,55,0.06,0.235959939,0.101588128
0.14,55,0.06,0.243329535,0.094317018
0.15,55,0.06,0.250442602,0.087991228
0.16,55,0.06,0.257321775,0.082435533
0.17,55,0.06,0.263986582,0.077522127
0.18,55,0.06,0.270453721,0.073151529
0.19,55,0.06,0.276737459,0.069239904
0.2,55,0.06,0.28285023,0.065715225
0.21,55,0.06,0.288803218,0.062518288
0.22,55,0.06,0.294606697,0.059603313
0.23,55,0.06,0.300270116,0.056935916
0.24,55,0.06,0.305802023,0.054488949
0.25,55,0.06,0.311210019,0.052238643
0.001,60,0.06,0.009846191,0.100126312
0.002,60,0.06,0.017338749,0.116758146
0.003,60,0.06,0.02361468,0.131812698
0.004,60,0.06,0.029171111,0.145635789
0.005,60,0.06,0.034258974,0.158476562
0.006,60,0.06,0.039017831,0.170513381
0.007,60,0.06,0.043530812,0.181872023
0.008,60,0.06,0.047849934,0.192638026
0.009,60,0.06,0.052008906,0.202865874
0.01,60,0.06,0.056030088,0.21258596
0.02,60,0.06,0.090434061,0.2807498
0.03,60,0.06,0.115682939,0.29328509
0.04,60,0.06,0.133854372,0.271550638
0.05,60,0.06,0.147748535,0.240532825
0.06,60,0.06,0.159255682,0.210922314
0.07,60,0.06,0.169360239,0.185521556
0.08,60,0.06,0.178563033,0.16449155
0.09,60,0.06,0.187132133,0.147208717
0.1,60,0.06,0.195220497,0.132931265
0.11,60,0.06,0.202920694,0.121032217
0.12,60,0.06,0.210291882,0.111023737
0.13,60,0.06,0.217374366,0.102518872
0.14,60,0.06,0.224198022,0.09520648
0.15,60,0.06,0.230787017,0.088845368
0.16,60,0.06,0.237162007,0.083258074
0.17,60,0.06,0.243340863,0.078315503
0.18,60,0.06,0.249338904,0.07391814
0.19,60,0.06,0.255169211,0.069982686
0.2,60,0.06,0.260843148,0.066437271
0.21,60,0.06,0.266370893,0.063222052
0.22,60,0.06,0.27176179,0.060290231
0.23,60,0.06,0.277024461,0.057606621
0.24,60,0.06,0.282166744,0.055143864
0.25,60,0.06,0.28719564,0.05287856
0.001,65,0.06,0.009095703,0.099864048
0.002,65,0.06,0.01601593,0.116459753
0.003,65,0.06,0.021811802,0.131482911
0.004,65,0.06,0.026942915,0.145278552
0.005,65,0.06,0.031641277,0.158095338
0.006,65,0.06,0.036035942,0.170111519
0.007,65,0.06,0.040203799,0.181453075
0.008,65,0.06,0.044192976,0.192205878
0.009,65,0.06,0.048034673,0.202424807
0.01,65,0.06,0.051749603,0.212140901
0.02,65,0.06,0.083568901,0.280594651
0.03,65,0.06,0.106983329,0.293772971
0.04,65,0.06,0.123863592,0.272479772
0.05,65,0.06,0.136774618,0.241635441
0.06,65,0.06,0.147466146,0.212055622
0.07,65,0.06,0.156853762,0.186620851
0.08,65,0.06,0.165404101,0.165532404
0.09,65,0.06,0.173367066,0.148187385
0.1,65,0.06,0.18088525,0.133851504
0.11,65,0.06,0.188044921,0.12189902
0.12,65,0.06,0.194901148,0.111842594
0.13,65,0.06,0.201491331,0.103296213
0.14,65,0.06,0.207843059,0.09594884
0.15,65,0.06,0.213978563,0.089557958
0.16,65,0.06,0.21991683,0.083944196
0.17,65,0.06,0.225674329,0.078977248
0.18,65,0.06,0.231265206,0.074557452
0.19,65,0.06,0.236701546,0.070601942
0.2,65,0.06,0.241993816,0.067039055
0.21,65,0.06,0.247151355,0.063808507
0.22,65,0.06,0.252182733,0.060862688
0.23,65,0.06,0.257095868,0.058165637
0.24,65,0.06,0.261897995,0.055689754
0.25,65,0.06,0.266595597,0.053411838
0.001,70,0.06,0.008451488,0.099636741
0.002,70,0.06,0.014880584,0.116201045
0.003,70,0.06,0.020264584,0.131196856
0.004,70,0.06,0.025030823,0.144968616
0.005,70,0.06,0.029395037,0.157764345
0.006,70,0.06,0.033477245,0.16976243
0.007,70,0.06,0.037348965,0.181088868
0.008,70,0.06,0.041054975,0.191829857
0.009,70,0.06,0.044624317,0.202040659
0.01,70,0.06,0.048076277,0.211752688
0.02,70,0.06,0.077671184,0.28044734
0.03,70,0.06,0.099498402,0.294173562
0.04,70,0.06,0.115257791,0.273261014
0.05,70,0.06,0.127314879,0.242568205
0.06,70,0.06,0.137298128,0.213016714
0.07,70,0.06,0.146063193,0.187554256
0.08,70,0.06,0.154046846,0.166416712
0.09,70,0.06,0.161483106,0.149019097
0.1,70,0.06,0.168505506,0.1346337
0.11,70,0.06,0.175194814,0.122635889
0.12,70,0.06,0.181602539,0.11253868
0.13,70,0.06,0.187763575,0.103956828
0.14,70,0.06,0.193703557,0.096579484
0.15,70,0.06,0.199443066,0.090163087
0.16,70,0.06,0.204999671,0.084526691
0.17,70,0.06,0.210388635,0.079538855
0.18,70,0.06,0.215623102,0.075099737
